ECG
-0.01538542
0.043435242
0.029858705
0.086800704
0.157968859
0.162191662
0.186096045
0.216616904
0.239060392
0.310013539
0.302904071
0.28392378
0.376693463
0.382915956
0.446108232
0.46130461
0.487394744
0.491607077
0.475523906
0.535865213
0.602575893
0.608571933
0.659335521
0.66326699
0.660636598
0.669708441
0.737151294
0.753413211
0.792866695
0.772897323
0.828292344
0.850883472
0.868639604
0.870270853
0.896093651
0.881575987
0.900589578
0.909352482
0.903165706
0.936619025
0.952237027
0.922195961
0.979637903
0.962936706
0.999194187
0.984342711
1.009650729
0.996015215
0.987643908
0.994136773
0.980398611
1.052697158
1.028761359
1.00111068
1.012842847
1.006058534
0.975686484
0.992276866
0.981216308
0.956664902
0.991213003
0.913810279
0.925222266
0.931218966
0.878674093
0.899780161
0.876899734
0.884862415
0.845046384
0.845874454
0.784908116
0.808753915
0.762834986
0.758171858
0.743130034
0.714624038
0.679098449
0.687410459
0.636979172
0.641711962
0.593135387
0.569051672
0.502833299
0.495502844
0.471282185
0.4414384
0.417294915
0.400368801
0.369660608
0.355415046
0.284484701
0.278189575
0.254363069
0.232420502
0.197004585
0.145324232
0.112674042
0.087950569
0.059668025
0.010246626
0.000423686
-0.006833592
-0.078219154
-0.131674175
-0.127063033
-0.18974513
-0.191070007
-0.234702306
-0.27208716
-0.242251034
-0.273859509
-0.334171364
-0.358324942
-0.412402609
-0.459378817
-0.452501766
-0.457517219
-0.509724914
-0.535822609
-0.573465284
-0.581149335
-0.602871014
-0.628403744
-0.658149676
-0.633609246
-0.698498644
-0.710829695
-0.754442988
-0.752548956
-0.82884727
-0.835800392
-0.845780527
-0.835682224
-0.855705936
-0.860373812
-0.911408775
-0.896225241
-0.906717555
-0.937782489
-0.963974579
-0.917472521
-0.966449951
-0.987026866
-0.980072544
-0.993018206
-0.987120491
-1.027434365
-0.992604671
-1.02194523
-0.977449932
-1.028321674
-0.99898435
-1.016191429
-1.014857132
-1.001231099
-1.019708679
-0.986069089
-0.990232865
-0.981427216
-0.998843163
-0.978624135
-0.954455348
-0.952358813
-0.969818891
-0.883033144
-0.884058949
-0.877099974
-0.864079243
-0.857902062
-0.813194731
-0.798516089
-0.770266899
-0.789932758
-0.735555577
-0.696282272
-0.695619444
-0.704346385
-0.652985845
-0.657090345
-0.623307343
-0.605113502
-0.56217049
-0.549216696
-0.476351087
-0.473521746
-0.488382463
-0.426943949
-0.40079964
-0.360706225
-0.339000797
-0.327746139
-0.299128999
-0.287511102
-0.234255431
-0.184899657
-0.156047265
-0.113431823
-0.095011777
-0.057996166
-0.049647569
-0.014044873
0.042447728
0.053753885
0.056290214
0.124481573
0.19308361
0.166485416
0.207853357
0.227763169
0.250241728
0.346996809
0.377011703
0.384278545
0.403765763
0.45257041
0.416895913
0.459208894
0.52349194
0.528527458
0.593065221
0.570342602
0.606439619
0.587038596
0.670908602
0.705906721
0.708075332
0.748090097
0.723221008
0.778218332
0.821047308
0.778350012
0.842106813
0.826786737
0.859081152
0.891428437
0.886512533
0.941832688
0.922754031
0.925461126
0.969555754
0.98043537
0.9407378
0.974823463
0.964118415
1.008111527
1.009161048
0.999753921
0.985435916
0.995150615
0.994019318
1.017000091
1.025117419
1.01709047
0.976779849
0.961880599
0.98446354
1.01613622
0.98812133
0.977110757
0.981359895
0.938185693
0.913021472
0.909876403
0.93080793
0.907699071
0.902570435
0.8541675
0.876300911
0.847049004
0.847643285
0.828907759
0.781757629
0.768062854
0.719095575
0.717593913
0.686433955
0.70913941
0.67377436
0.602221465
0.629904694
0.59584575
0.542130074
0.533153854
0.548050811
0.453202338
0.445845878
0.43530449
0.402899899
0.39092388
0.344063814
0.314902098
0.253184931
0.223281388
0.208549976
0.228035891
0.18016928
0.134360131
0.131254772
0.047669144
0.013013964
0.003708446
-0.032567328
-0.043322992
-0.11433194
-0.144062489
-0.193079705
-0.181515746
-0.220957996
-0.239097126
-0.293910499
-0.264113717
-0.321193156
-0.393399285
-0.415206072
-0.411226272
-0.497743709
-0.493498449
-0.515180595
-0.542668351
-0.597231554
-0.566137655
-0.63283425
-0.644561777
-0.625339469
-0.67802744
-0.669565978
-0.715749654
-0.754937553
-0.793254863
-0.811756023
-0.794182574
-0.853252801
-0.861642644
-0.85725429
-0.896985806
-0.88073394
-0.880563024
-0.94689703
-0.949018528
-0.932081053
-0.966384566
-0.981862357
-0.922372431
-0.979374793
-1.01616345
-0.978384704
-0.999488591
-1.004594028
-0.986301886
-1.004949407
-1.00532657
-0.996222439
-1.003492416
-0.998665134
-0.992407925
-1.003580878
-0.993144126
-0.965258742
-0.969973635
-0.950801344
-0.964911155
-0.940406884
-0.92531174
-0.913043634
-0.913154197
-0.913100436
-0.831267823
-0.858362136
-0.837232316
-0.814751272
-0.812260201
-0.774773347
-0.804792593
-0.765941714
-0.700022589
-0.674745542
-0.7030666
-0.662432807
-0.646451477
-0.632983828
-0.598882077
-0.560332694
-0.502253314
-0.47723957
-0.501883484
-0.449217528
-0.449453299
-0.379282494
-0.362401622
-0.33740864
-0.308125894
-0.277465985
-0.216956862
-0.20981309
-0.187006984
-0.136749096
-0.12925121
-0.102532812
-0.089656067
-0.055443813
0.019018652
0.055894702
0.086121794
0.111965129
0.124208728
0.180156914
0.170875112
0.224828215
0.256547588
0.298030254
0.327580757
0.342498789
0.362156341
0.379405626
0.428836026
0.454875298
0.478849994
0.490431992
0.525687609
0.599460428
0.580061632
0.608969901
0.657953335
0.622461332
0.689792504
0.702144184
0.7539295
0.730145262
0.761460492
0.797278109
0.768130285
0.808732129
0.85454836
0.863122785
0.847519983
0.872706587
0.91448559
0.922252839
0.915289417
0.940332366
0.947583453
0.965630531
0.958232577
0.954247369
0.98681269
0.952755436
0.988042945
1.030878961
1.034974067
1.02417225
1.004751929
1.011632426
1.030133994
1.002705461
0.993740533
1.005036849
0.977916854
0.971824968
0.942931557
0.974281795
0.938847195
0.912039421
0.909199084
0.9045635
0.897278752
0.923559282
0.872138171
0.863442164
0.852184999
0.818480826
0.806661154
0.793052934
0.736786004
0.744882113
0.744012174
0.706595783
0.688567884
0.681267896
0.635444766
0.606117197
0.607754283
0.56973137
0.539473834
0.514703895
0.499723333
0.453398545
0.422249507
0.384770937
0.381115059
0.359101646
0.291754556
0.275135006
0.216617758
0.234894371
0.195771533
0.138421934
0.136778065
0.121509217
0.060107802
0.005242187
0.030672971
-0.033642477
-0.079570176
-0.089544596
-0.077516832
-0.132751067
-0.163745555
-0.239761941
-0.267151238
-0.266941265
-0.300150978
-0.338329646
-0.361624565
-0.391858365
-0.470181478
-0.486360314
-0.47713343
-0.492741514
-0.556871428
-0.615707093
-0.604918724
-0.606715259
-0.626868614
-0.662344873
-0.718469234
-0.672321593
-0.758443322
-0.783800635
-0.777490302
-0.781170256
-0.78302967
-0.81794446
-0.849897994
-0.856339861
-0.871623577
-0.892822239
-0.849708897
-0.902536237
-0.967846504
-0.93569791
-0.947033347
-0.961633532
-0.940831818
-0.942121794
-1.00569086
-0.981894621
-0.993712249
-0.98119452
-1.041739307
-0.988565277
-1.011776973
-1.02825075
-0.95993523
-0.990311424
-1.016760524
-0.990908682
-0.968826658
-0.99700539
-0.988700314
-0.943392505
-0.939099602
-0.922783864
-0.934681139
-0.878048047
-0.928904016
-0.921592126
-0.902629511
-0.884028461
-0.834300477
-0.831307324
-0.798362417
-0.785066776
-0.769516803
-0.720975312
-0.726483896
-0.734338821
-0.723164138
-0.635642766
-0.625934893
-0.624493365
-0.577461416
-0.521572325
-0.557945686
-0.528702238
-0.480777886
-0.417176277
-0.398574689
-0.390009138
-0.400059991
-0.316861572
-0.310363763
-0.285631361
-0.242017789
-0.215441715
-0.189180592
-0.182046168
-0.130279101
-0.07534688
-0.080410309
-0.031971938
0.012928923
0.036883747
0.057732672
0.105123186
0.075352759
0.171095929
0.180282493
0.197460886
0.267685949
0.246654766
0.313595669
0.339052724
0.373645943
0.405482292
0.416890668
0.443329416
0.508470941
0.527658865
0.52667818
0.551107241
0.583752451
0.624642313
0.593828933
0.640661146
0.688593312
0.719523389
0.728589037
0.71668878
0.793827278
0.789130264
0.828733958
0.852128845
0.858388395
0.880817397
0.848925022
0.88494741
0.925290863
0.918357015
0.967007481
0.922130464
0.888763899
1.001243155
0.94028315
0.959137547
0.994425132
0.965109797
0.989890203
0.989956606
0.974669028
1.004511851
0.99207696
0.99943335
1.004796443
0.988728513
0.989884964
0.992179872
1.009499712
0.978249945
0.995946089
0.989848735
0.927637263
0.958871073
0.933236049
0.945698294
0.89288502
0.896506118
0.885432734
0.855446852
0.832347505
0.838713793
0.805019846
0.762961692
0.781605477
0.783726053
0.762959392
0.710164235
0.65283898
0.663430583
0.611554904
0.600781081
0.592282671
0.577445728
0.541233286
0.54925184
0.489482223
0.465001637
0.399329719
0.370601291
0.338788398
0.346973795
0.334527823
0.276798806
0.225535975
0.200047362
0.20042155
0.184581826
0.079475266
0.099150756
0.030741875
0.050515917
-0.011321458
-0.043675803
-0.074393988
-0.086801232
-0.151408309
-0.146516577
-0.177441308
-0.239303563
-0.24559426
-0.273884637
-0.310434344
-0.331193867
-0.356628292
-0.413231151
-0.428228524
-0.441153664
-0.490881753
-0.499950109
-0.522514933
-0.581938547
-0.616300179
-0.626873035
-0.621119027
-0.664623725
-0.699607473
-0.702127149
-0.729968591
-0.735409655
-0.774011988
-0.799959645
-0.798196934
-0.838467668
-0.809590528
-0.857935747
-0.854378165
-0.901917916
-0.902247531
-0.936932051
-0.929161245
-0.948792555
-0.923369876
-0.989770433
-0.984081196
-0.990969383
-0.968762219
-1.010906187
-0.97496085
-0.985111265
-1.000250047
-0.995410785
-0.992906712
-1.003191126
-0.974373038
-1.008660325
-0.956577963
-0.986537108
-0.983403696
-0.971671256
-1.002669313
-0.925757788
-0.904492779
-0.925846475
-0.92161006
-0.937879969
-0.910561606
-0.904604305
-0.879697007
-0.834044501
-0.84282157
-0.871505171
-0.798473294
-0.772292879
-0.764075065
-0.705682744
-0.753049154
-0.715141165
-0.668667467
-0.628294029
-0.673592033
-0.58685569
-0.618888113
-0.59037069
-0.534366143
-0.509722901
-0.461636891
-0.439112304
-0.404231516
-0.359484784
-0.375122108
-0.362756414
-0.315396565
-0.297235371
-0.245451735
-0.229890975
-0.18174196
-0.153534889
-0.103830609
-0.102078416
-0.045496569
-0.033952183
-0.002710382
0.025910245
0.077779218
0.10479199
0.170022575
0.103323035
0.156472666
0.210320268
0.265317938
0.249641274
0.332063749
0.354526724
0.369657134
0.424247325
0.440033353
0.469828894
0.503650562
0.479850685
0.528379849
0.586188698
0.613740405
0.598993243
0.654824255
0.696232953
0.665671063
0.69733186
0.739750917
0.753425603
0.772867604
0.796787369
0.820070026
0.827000157
0.863414579
0.839120707
0.872704435
0.89633817
0.870803552
0.95230223
0.925637164
0.937623596
0.92962658
0.963195627
0.99714272
0.974906442
0.978673621
0.994011245
0.985590514
0.988887688
1.007282571
1.014918646
1.003088297
1.012616713
0.999539316
0.992359218
0.995316698
0.980763873
1.006660955
0.957266437
0.959447469
0.988415047
0.977290218
0.945844626
0.900232826
0.937558883
0.919512878
0.933975915
0.874635946
0.857718522
0.840691483
0.838841017
0.830392409
0.801922745
0.78571986
0.760726179
0.725257637
0.729763447
0.707051201
0.610173744
0.659159587
0.641530558
0.579917198
0.559950942
0.508447824
0.474511329
0.511355323
0.451797485
0.428745371
0.350195916
0.367633811
0.344946437
0.287879199
0.25760991
0.236550385
0.226171493
0.20914296
0.122481968
0.14119784
0.096893298
0.03183004
0.038098795
-0.024961539
-0.027903356
-0.094764318
-0.094691377
-0.11869022
-0.157064271
-0.197328394
-0.218215924
-0.264408262
-0.248062601
-0.322501291
-0.339554942
-0.349890338
-0.412346774
-0.44298633
-0.469527055
-0.507520793
-0.556359517
-0.527905644
-0.54581638
-0.566088388
-0.580983699
-0.64403007
-0.631626212
-0.686605159
-0.735355245
-0.707215106
-0.733835839
-0.775645127
-0.777211777
-0.789175131
-0.839474964
-0.845434839
-0.848725893
-0.847653255
-0.888373915
-0.920583115
-0.898225377
-0.938626534
-0.966839593
-0.948071796
-0.970783984
-0.988140172
-1.010503225
-0.973077976
-0.979929942
-0.980995002
-0.94827399
-1.020603308
-1.01167841
-0.988249041
-1.039173132
-0.967674468
-1.005770469
-0.988971119
-1.003434115
-0.981398888
-0.964136475
-0.978684259
-0.927943193
-0.968781489
-0.961415778
-0.938501142
-0.906474591
-0.92807574
-0.904697924
-0.871066391
-0.873322419
-0.839522185
-0.825577032
-0.826753374
-0.78798443
-0.786238988
-0.741368959
-0.708593295
-0.721343502
-0.65727978
-0.655187775
-0.62108661
-0.603103304
-0.583070734
-0.561433627
-0.516578636
-0.495986464
-0.431951729
-0.450691628
-0.413835625
-0.396661566
-0.366094881
-0.3432749
-0.316280179
-0.259178276
-0.230685403
-0.188611698
-0.187171415
-0.181478034
-0.102824069
-0.097412976
-0.035302001
-0.03681111
0.025424944
0.02885489
0.041963906
0.077938467
0.154104956
0.180876231
0.206999949
0.234594178
0.251429644
0.299882616
0.283998552
0.346914912
0.342339614
0.395919868
0.426474412
0.46384616
0.50672426
0.523999515
0.579843898
0.571651942
0.53720499
0.611396094
0.65989059
0.690591902
0.708336312
0.709163625
0.74193847
0.738924603
0.779284628
0.777043992
0.827075539
0.828640927
0.816948186
0.879000348
0.897699922
0.902804788
0.946895194
0.909506398
0.941115998
0.977317355
0.948058961
0.946846168
0.95796072
0.99800542
1.002930902
0.995346881
0.972152199
1.001046958
1.003847421
0.998257584
0.998250378
1.019777018
0.995778879
0.983182762
0.997225973
0.996035211
0.981318619
0.971946084
0.963537854
0.936380837
0.953061634
0.91970293
0.947562081
0.910394306
0.88661486
0.895534575
0.882864229
0.883888884
0.883269115
0.834425027
0.824181703
0.770770268
0.754982746
0.756885532
0.716939074
0.70059821
0.692871062
0.645623862
0.59823844
0.611062254
0.603758774
0.60646501
0.55540434
0.508982689
0.481802585
0.453568861
0.431096546
0.378027451
0.32705234
0.346989917
0.293589707
0.29453546
0.197347485
0.174136445
0.175697803
0.16152406
0.08956197
0.086076633
0.064246816
0.043306094
-0.024997703
-0.035385951
-0.066849952
-0.090415763
-0.128583197
-0.164828198
-0.162789003
-0.253869447
-0.252156043
-0.261961294
-0.324294445
-0.31913557
-0.386332966
-0.424890679
-0.45579577
-0.458775163
-0.495168394
-0.52223231
-0.512585694
-0.570973512
-0.600088326
-0.612850951
-0.647460166
-0.669671933
-0.670431389
-0.666837171
-0.73333496
-0.766902914
-0.763749706
-0.779854246
-0.824228761
-0.885168903
-0.839071817
-0.8885496
-0.915461951
-0.915884036
-0.898099754
-0.916773136
-0.908555283
-0.931214315
-0.952728101
-0.949807565
-0.983435178
-0.991720648
-0.999893984
-1.005910568
-0.986051051
-1.008643983
-0.996697169
-0.976370596
-0.998856443
-0.977787735
-1.032717978
-1.000630463
-1.001888891
-0.991636574
-0.939702049
-1.021639282
-0.977126982
-0.930395709
-0.934911171
-0.945367948
-0.945430591
-0.932228907
-0.895413677
-0.871169616
-0.882224817
-0.84247797
-0.825772341
-0.799646995
-0.781185081
-0.764850401
-0.78987268
-0.772799447
-0.762752459
-0.704493207
-0.682133492
-0.636310202
-0.606897625
-0.623354702
-0.609371912
-0.55072661
-0.547936574
-0.509692363
-0.455251507
-0.445637819
-0.427770964
-0.35536561
-0.353936565
-0.332563202
-0.332324827
-0.304255567
-0.263315662
-0.242455614
-0.169928316
-0.150694872
-0.151270531
-0.105954074
-0.055635024
-0.023226299
-0.019839576
-0.003891986
0.069626972
0.128790657
0.119293211
0.132952507
0.224513908
0.220595127
0.235501819
0.293779457
0.300338773
0.277258769
0.400909084
0.403679735
0.473573911
0.472332411
0.488965635
0.496711286
0.521941373
0.587584695
0.613937128
0.604998424
0.606775715
0.677591829
0.705868546
0.712045219
0.743371065
0.771464077
0.798738749
0.805774218
0.803255892
0.825623153
0.864073743
0.884744454
0.865636897
0.886995602
0.884845465
0.952148058
0.962799594
0.961548585
0.936386067
0.968251675
0.995923223
0.985913552
0.998944994
0.957789709
0.991151354
1.019393039
0.991336873
1.030962713
0.99833786
1.0147343
0.980558546
0.968905844
1.021920915
0.983285819
1.000967505
1.022784496
0.936603171
0.960201401
0.932741472
0.967071272
0.947026215
0.935284344
0.922180444
0.894231537
0.873313444
0.884058379
0.864463709
0.865882224
0.799002668
0.793570456
0.795691562
0.770553097
0.705897933
0.692903891
0.678182226
0.689182485
0.627273466
0.618979557
0.571048921
0.580357588
0.541661466
0.500027785
0.47023187
0.473107617
0.436409709
0.395798234
0.371895151
0.358511435
0.25366428
0.314107351
0.227937748
0.167355653
0.174978456
0.159237849
0.106121121
0.095353581
0.033301048
0.022519532
0.012575607
-0.028984831
-0.057538836
-0.105197564
-0.126875207
-0.171844923
-0.188203263
-0.200894377
-0.246459975
-0.324078332
-0.313577226
-0.35212208
-0.38468934
-0.421164144
-0.40279262
-0.459571153
-0.482220447
-0.547700626
-0.542773433
-0.55682032
-0.595152462
-0.588407792
-0.604107127
-0.633573606
-0.700655162
-0.707928523
-0.751844045
-0.739585642
-0.772316988
-0.77471303
-0.819376552
-0.845004001
-0.828657521
-0.86223124
-0.885423074
-0.89098656
-0.916165011
-0.962063724
-0.927275904
-0.954941638
-0.9399084
-0.930330484
-1.001511814
-0.940508515
-1.01283586
-0.966154086
-0.994370506
-0.957629357
-0.996721209
-0.98827246
-1.022100973
-1.011874564
-1.00331685
-0.992639849
-0.986427585
-0.943297061
-0.952290312
-0.957069568
-0.950315613
-0.971811923
-0.945947595
-0.956504688
-0.912678145
-0.934064179
-0.912726627
-0.880890944
-0.886457431
-0.868713035
-0.840186362
-0.817893737
-0.851036729
-0.780412701
-0.727696509
-0.760139532
-0.725240305
-0.662443963
-0.705692918
-0.666180756
-0.637285839
-0.618787175
-0.587431021
-0.571551611
-0.499451064
-0.483184166
-0.472106277
-0.424833589
-0.401121288
-0.355907546
-0.35502599
-0.295440129
-0.28967168
-0.271384366
-0.253755717
-0.215518669
-0.159440349
-0.146937048
-0.107635613
-0.108296202
-0.035433156
-0.010345822
0.040237088
0.014271348
0.082674127
0.117561101
0.1188814
0.182146543
0.209552031
0.202475066
0.240282742
0.282197121
0.306552737
0.378330163
0.376568692
0.413264028
0.39696842
0.445126055
0.476024495
0.535407836
0.560556816
0.525230453
0.603901945
0.654971358
0.641947092
0.624877693
0.694872711
0.689249192
0.763065991
0.77533395
0.792239245
0.816652502
0.824623452
0.830993228
0.815109857
0.900823507
0.901537643
0.924503403
0.945648452
0.903160073
0.937273646
0.958994714
0.972989552
0.939613802
0.965622888
0.984387827
0.976184541
1.018504286
1.008276652
0.999272039
0.966590168
1.00173577
1.003344169
0.992285662
0.982998286
0.983386454
0.992338733
1.039641087
0.979989992
0.988045564
0.954815166
0.976422554
0.992136516
0.950286763
0.941347215
0.905929654
0.918736249
0.871149708
0.913781938
0.896863546
0.869008061
0.807678683
0.818934721
0.787764621
0.779280525
0.740350714
0.725674657
0.707691556
0.698540497
0.652623929
0.597634757
0.612688364
0.568607599
0.572017154
0.529975171
0.484804359
0.473038882
0.452614532
0.391744934
0.377566859
0.367655592
0.334135532
0.341629282
0.282215091
0.256718669
0.223461128
0.202491744
0.153715399
0.111279544
0.055757079
0.089678548
0.031319606
-0.031587464
-0.022253595
-0.071558892
-0.133689008
-0.113894727
-0.166738075
-0.204542654
-0.223736346
-0.258159961
-0.302526699
-0.296303451
-0.354073569
-0.358890453
-0.384819375
-0.430652852
-0.473279079
-0.490270344
-0.501696304
-0.581870748
-0.577600399
-0.592701541
-0.600893136
-0.625754888
-0.666540271
-0.70750605
-0.698019701
-0.727140515
-0.758990245
-0.777358564
-0.776722583
-0.818323338
-0.836400319
-0.837620693
-0.844701692
-0.88323929
-0.890412019
-0.944637892
-0.920851995
-0.921070276
-0.944013263
-0.941418358
-0.967324622
-0.938224774
-0.983442425
-0.980335887
-0.995167177
-0.975924338
-0.980627974
-1.032376692
-1.034546457
-1.003794296
-1.004084983
-0.955196915
-1.039053581
-0.998089556
-1.001945543
-1.019061786
-0.960966902
-0.934188776
-0.935466085
-0.963531109
-0.951989811
-0.916758535
-0.907447067
-0.885819231
-0.890211433
-0.849378414
-0.841161615
-0.839616213
-0.781463744
-0.753559739
-0.77698902
-0.752959633
-0.753577467
-0.723507175
-0.719407093
-0.645472069
-0.661035653
-0.622505529
-0.591173389
-0.607382875
-0.55875732
-0.500676818
-0.504593297
-0.462157402
-0.42534044
-0.434211916
-0.389291094
-0.34415894
-0.345876013
-0.30038257
-0.286320083
-0.249672033
-0.186024962
-0.155443578
-0.173385799
-0.111335036
-0.075203967
-0.034837233
-0.046408583
0.014735753
0.047881173
0.089132854
0.08198945
0.128670144
0.165481947
0.181330304
0.250459064
0.28479574
0.278880495
0.302964505
0.293728311
0.367088152
0.406975331
0.43581096
0.441220742
0.482236102
0.510573349
0.549713341
0.543482888
0.587104497
0.634328276
0.581053842
0.663527574
0.705745181
0.70190092
0.733683993
0.755144818
0.73431226
0.805047902
0.800188114
0.835519507
0.86052493
0.874730303
0.880347596
0.924030197
0.908095667
0.935506904
0.936977602
0.924059995
0.957692539
0.961259049
0.941953724
0.944913664
0.945356896
0.986264828
1.009144895
0.991649364
1.030718064
0.994383911
0.976778504
0.972660704
0.984183665
1.007977289
0.999278959
1.001720541
0.991404638
0.944052133
0.973858095
0.962895008
0.959837401
0.93777661
0.92308116
0.930044829
0.92145133
0.883686205
0.865312227
0.874451282
0.854550201
0.809406315
0.812564943
0.790594747
0.780477819
0.727259048
0.705381764
0.691568151
0.676403371
0.660655684
0.617058739
0.619344657
0.5986934
0.564860492
0.494748641
0.499072321
0.500684732
0.461097655
0.416140613
0.366635494
0.380748481
0.332233633
0.293195476
0.276447149
0.21837107
0.217032971
0.184651022
0.128243239
0.128959953
0.084076685
0.059399137
0.046963548
0.003505734
-0.043543078
-0.056926572
-0.077405801
-0.117007048
-0.180618542
-0.148249967
-0.210562032
-0.253501845
-0.268060956
-0.314312413
-0.343591728
-0.36736987
-0.389232943
-0.409630349
-0.486537524
-0.467649318
-0.514165896
-0.551493766
-0.569656654
-0.564579019
-0.642766246
-0.628031041
-0.687050137
-0.698979553
-0.688541248
-0.733695137
-0.724114909
-0.773029764
-0.800810213
-0.781533781
-0.849126188
-0.876990272
-0.887215608
-0.880134284
-0.887140283
-0.904663573
-0.94296574
-0.929555291
-0.940240601
-0.955597331
-0.945644807
-0.945783477
-0.9929298
-0.995958461
-1.002367596
-0.9933442
-1.021887081
-0.99907611
-1.009339904
-0.998292734
-1.021059369
-1.013218368
-1.017453959
-0.987532692
-0.996862574
-0.933877586
-0.999227493
-0.972713915
-0.964456315
-0.971265356
-0.957209148
-0.929437025
-0.922953444
-0.910231314
-0.892333024
-0.882049907
-0.869549204
-0.892818321
-0.836997199
-0.800816891
-0.79000721
-0.772889874
-0.7448936
-0.718210845
-0.657214235
-0.68211219
-0.628280873
-0.67893185
-0.627321394
-0.586238488
-0.580100354
-0.543776423
-0.491176026
-0.472171214
-0.426126873
-0.427710624
-0.37960555
-0.364491747
-0.349808818
-0.324643666
-0.269284047
-0.242213822
-0.209883326
-0.162775006
-0.180930242
-0.113179105
-0.097071616
-0.066372396
-0.008272423
0.00458361
0.029038943
0.090925399
0.129425048
0.125717078
0.174758627
0.2013781
0.191938933
0.254672495
0.31064038
0.330512714
0.335042969
0.397403825
0.41769164
0.381038362
0.444302982
0.472462714
0.536333731
0.567576397
0.555838594
0.579270651
0.600075655
0.685498535
0.680841054
0.696412419
0.747235564
0.732376744
0.778307378
0.766308546
0.796639873
0.850433681
0.842126854
0.861593751
0.8825332
0.815757833
0.868345784
0.915969277
0.940353549
0.91575439
0.925463662
0.978413079
0.994311709
1.000440277
0.992151191
0.974888231
0.978427661
1.002812335
0.99641025
0.978741378
1.012375186
1.015839448
0.998930203
0.987739408
0.986690417
0.970874621
1.004209158
0.99625854
1.020842899
0.979598087
0.941671839
0.954977692
0.975601763
0.938248864
0.903203574
0.890140379
0.883746814
0.8540648
0.840967956
0.833416087
0.815373507
0.810850515
0.783007338
0.750667692
0.737822572
0.726824338
0.674427494
0.684512236
0.651323873
0.623681762
0.634417549
0.572204165
0.558786859
0.541663971
0.485979984
0.473342134
0.441889596
0.417091346
0.406579686
0.362151601
0.364019597
0.329767021
0.275958332
0.243527987
0.213832086
0.203420076
0.130914114
0.1178782
0.099566204
0.031684248
0.005342213
-0.009144124
-0.010635063
-0.072177842
-0.093966472
-0.145517576
-0.156051494
-0.186856161
-0.219857195
-0.237941045
-0.284412101
-0.307253073
-0.349580745
-0.359597721
-0.416757799
-0.461333633
-0.475387594
-0.475835962
-0.523573139
-0.566835522
-0.568786563
-0.60018277
-0.611905324
-0.619964862
-0.63326804
-0.674278684
-0.694721309
-0.756526274
-0.738348935
-0.755250973
-0.811543777
-0.786945668
-0.819264717
-0.83901229
-0.883516526
-0.887983606
-0.873015836
-0.920653504
-0.904564927
-0.897856828
-0.93887845
-0.926221976
-0.952006029
-0.96614523
-0.961518204
-0.976837759
-1.028880083
-0.980759822
-1.015683526
-1.021657081
-1.058647488
-1.005085967
-1.007397242
-1.011324066
-0.974355768
-1.032445605
-0.96853868
-0.97180335
-0.930518116
-0.961459059
-0.962187524
-0.947913393
-0.915197485
-0.932870535
-0.930343312
-0.94030701
-0.850629175
-0.894405027
-0.845460953
-0.862182589
-0.858316782
-0.830206337
-0.801447045
-0.76452006
-0.755951651
-0.743626286
-0.712090981
-0.661313623
-0.638807286
-0.636405757
-0.590543285
-0.581645681
-0.574193917
-0.544627939
-0.460532044
-0.45449052
-0.463080447
-0.420815613
-0.373291823
-0.354579598
-0.313925523
-0.278651614
-0.248660705
-0.236352794
-0.196700034
-0.196051113
-0.162272458
-0.13832211
-0.103391819
-0.066987563
-0.000662065
-0.011417408
0.029115786
0.05918762
0.065761429
0.108725687
0.13553018
0.144087404
0.232445274
0.256174526
0.292804964
0.323762022
0.348425699
0.38431161
0.405209626
0.43958248
0.443723902
0.484916474
0.490712615
0.538217533
0.598380893
0.583240116
0.601604384
0.645495647
0.673446356
0.657950866
0.70059692
0.75971195
0.752627631
0.733811947
0.788208469
0.785367404
0.840392898
0.867293386
0.861704645
0.866567108
0.921323193
0.883814342
0.925499759
0.95362389
0.918526939
0.951281942
0.975378716
1.011123677
0.989677392
0.975783134
0.98846014
1.01056782
1.011481651
0.997339255
0.998541879
1.014891493
0.980558086
1.002978951
0.976036732
0.97118519
0.977886776
0.974667572
0.969078697
0.947735428
0.946511678
0.933806407
0.966622623
0.916837323
0.931268036
0.915200892
0.873454258
0.844376652
0.829905057
0.811818126
0.811127242
0.807363978
0.83020083
0.750904129
0.754246569
0.727925492
0.715328597
0.64775823
0.631186823
0.641750681
0.572792294
0.589750919
0.498706965
0.487374739
0.500683846
0.479467607
0.434430632
0.422468611
0.392588565
0.356695931
0.307437229
0.333407688
0.28387298
0.205562022
0.211081531
0.184046057
0.132888457
0.103025544
0.087961604
0.030412114
0.031771152
0.01099339
-0.048219573
-0.068879341
-0.085683445
-0.162441395
-0.13548559
-0.20002129
-0.198372105
-0.207819715
-0.296014824
-0.335551228
-0.393192738
-0.341241648
-0.429660474
-0.454948567
-0.440181409
-0.46507789
-0.554517458
-0.486796703
-0.590519401
-0.589760219
-0.604806772
-0.650607261
-0.67605658
-0.691596986
-0.696836659
-0.764804813
-0.725728684
-0.775655089
-0.813592099
-0.810188676
-0.805993411
-0.799280537
-0.877860577
-0.881016832
-0.908403059
-0.906089293
-0.915063449
-0.936380808
-0.962500015
-0.919003545
-0.980061516
-0.942708847
-0.980876761
-0.961007084
-0.97147388
-0.944698714
-0.998838511
-0.991502543
-1.015579498
-1.00127663
-0.978142969
-1.006308068
-0.963602959
-0.996594605
-0.974337318
-0.992542757
-0.988843338
-0.94771689
-0.951608381
-0.92647302
-0.910126735
-0.922957851
-0.927301802
-0.875744624
-0.918536561
-0.863775368
-0.857652197
-0.851474482
-0.81684062
-0.788700341
-0.780172853
-0.791744377
-0.725072839
-0.735204739
-0.727546785
-0.687190026
-0.642345467
-0.61106969
-0.59363589
-0.60440635
-0.543284842
-0.532682126
-0.495317545
-0.43566316
-0.480698371
-0.426864553
-0.379651843
-0.321836736
-0.334612272
-0.291858985
-0.272014363
-0.244025434
-0.227484972
-0.189802217
-0.131530534
-0.119164109
-0.09097067
-0.07023767
-0.045938739
0.007872489
0.075802778
0.08397737
0.107887479
0.117088201
0.160813237
0.208553773
0.214362643
0.274571222
0.283658948
0.347485545
0.355138569
0.383746475
0.367771606
0.427384778
0.435046084
0.485715036
0.54166229
0.522810058
0.578198239
0.605559809
0.618084435
0.640944139
0.669952823
0.723411334
0.751783315
0.69797893
0.752147297
0.762038023
0.783024596
0.799447231
0.828245169
0.845276139
0.846648945
0.864067861
0.896547557
0.90781807
0.945589202
0.917912116
0.976831684
0.985915889
0.945697356
0.928197112
0.970308118
1.000524165
0.98415349
0.98790352
0.993738727
1.02553009
1.017909118
0.97958547
1.031851639
0.995182359
1.012147474
1.025139776
0.977172982
0.974032631
0.971928036
0.963552628
0.946963371
0.983924912
0.954479728
0.92917584
0.951609216
0.892990397
0.863760184
0.879057611
0.854598199
0.815111066
0.822268555
0.804955176
0.798775335
0.766566622
0.744828152
0.697924151
0.697614596
0.676527792
0.653993336
0.621404072
0.587855022
0.590795331
0.544008313
0.530524116
0.518198478
0.494092458
0.46578197
0.40791074
0.374890974
0.377382595
0.33867858
0.311394273
0.269247797
0.244711323
0.198652707
0.178855835
0.122583702
0.119533284
0.095437414
0.043517994
0.048335151
-0.006708752
-0.020791301
-0.098001066
-0.085859204
-0.122599203
-0.193577654
-0.181054208
-0.225898043
-0.249844205
-0.282223451
-0.318304156
-0.349189876
-0.377022807
-0.419360769
-0.438280223
-0.490840876
-0.498967561
-0.517417798
-0.51773
-0.545066312
-0.606913052
-0.631406023
-0.657614084
-0.679432527
-0.675646254
-0.722004636
-0.74511644
-0.805038171
-0.785634494
-0.768670786
-0.81190159
-0.859974405
-0.856715528
-0.865557846
-0.871378508
-0.922648606
-0.898616861
-0.917149098
-0.939116234
-0.936902902
-0.93008432
-0.977371931
-0.972798905
-0.9986506
-0.973341342
-1.005567672
-0.987991983
-1.002957402
-1.000472691
-1.000354279
-0.961072772
-1.010387151
-0.973449943
-0.97031454
-0.995146559
-1.006339372
-0.987104165
-0.980018318
-0.95301285
-0.976234767
-0.975217128
-0.937399998
-0.930944491
-0.907495419
-0.890216522
-0.858834002
-0.855083343
-0.860885645
-0.800992057
-0.828412054
-0.779821202
-0.831948353
-0.759574272
-0.765167341
-0.712131316
-0.705672645
-0.66525622
-0.660886952
-0.638905862
-0.596861531
-0.572007548
-0.561167568
-0.510893284
-0.486123157
-0.469380779
-0.4502387
-0.391026506
-0.381983754
-0.363234032
-0.354181133
-0.301448771
-0.294385894
-0.198362493
-0.236325863
-0.170557522
-0.121543651
-0.08474289
-0.070219765
-0.053769037
-0.035177005
0.015112026
0.05382733
0.084714753
0.096722862
0.133886865
0.182627473
0.204176102
0.247794512
0.289007009
0.301586078
0.323423815
0.348345987
0.387716098
0.44977306
0.446841254
0.451368937
0.477919704
0.518573702
0.528249886
0.56031559
0.558573864
0.585387399
0.647831994
0.667387867
0.689323213
0.719840631
0.741379671
0.771761654
0.80402037
0.82310829
0.824015698
0.805758296
0.888876136
0.876539217
0.889258532
0.86961948
0.941864436
0.919833014
0.933308269
0.957486109
0.921546852
0.949097733
0.938094194
0.955393967
1.006796755
0.986258985
0.967786917
0.946916494
1.015335666
0.982901253
1.038839397
1.026842355
1.03687291
0.985037912
0.993615422
0.977908186
1.013304146
0.986425321
0.977725019
0.977142201
0.952209118
0.946081599
0.897280569
0.902527225
0.923767033
0.894927738
0.839679964
0.831382417
0.849501096
0.824320309
0.817536094
0.818908938
0.750632077
0.737434877
0.692356373
0.691670943
0.661098968
0.641042622
0.612399415
0.624292141
0.580408911
0.558764477
0.509569239
0.47989089
0.509207227
0.459224734
0.4318337
0.367126771
0.371340475
0.34438584
0.289557519
0.246261578
0.246078917
0.187999014
0.190127115
0.149727663
0.134835177
0.082499582
0.063980685
0.01287917
0.005538008
-0.051540254
-0.050230858
-0.08930392
-0.123518578
-0.173619514
-0.17713122
-0.218910107
-0.276730633
-0.264083092
-0.286723041
-0.311049157
-0.368318214
-0.405978486
-0.450729448
-0.476013747
-0.438637959
-0.494426486
-0.585170717
-0.604107163
-0.555761738
-0.631814844
-0.664819248
-0.638447547
-0.690584822
-0.740894837
-0.736109318
-0.747021494
-0.787550061
-0.757852854
-0.788790952
-0.837936459
-0.869101473
-0.894938224
-0.887106222
-0.886709772
-0.884689383
-0.953454397
-0.943594175
-0.940804064
-0.98633661
-0.961956921
-0.97801917
-0.955795172
-0.997044112
-0.978506438
-0.973327133
-1.001974697
-0.959454107
-0.990982272
-0.988827371
-0.970381652
-1.030848198
-1.016774089
-1.002577513
-1.007677504
-0.983055976
-0.942906958
-0.957438309
-0.915458193
-0.934387542
-0.952586946
-0.913485788
-0.948227436
-0.891568141
-0.864217277
-0.858987587
-0.847223908
-0.8355851
-0.803729796
-0.849681595
-0.73195928
-0.785002677
-0.728780876
-0.732007982
-0.687904636
-0.694629112
-0.65965949
-0.669686233
-0.585938663
-0.524736703
-0.567664631
-0.519432677
-0.532369285
-0.482458516
-0.472584339
-0.449651219
-0.395911024
-0.339975213
-0.344227991
-0.335285866
-0.263164661
-0.245265507
-0.231580505
-0.15338707
-0.142055073
-0.125425703
-0.128838313
-0.021071348
-0.02219043
0.009585003
0.025928248
0.061466506
0.124794428
0.144332481
0.157867704
0.166163159
0.207455444
0.250973532
0.309144611
0.312214349
0.319022681
0.36751366
0.431079583
0.423159741
0.463414534
0.489247964
0.525237556
0.573311885
0.546077486
0.595499934
0.620894041
0.640204356
0.660169982
0.701345412
0.691398262
0.730426473
0.779838885
0.74618336
0.786317078
0.79596932
0.794072215
0.835601883
0.877865789
0.915609773
0.89459145
0.928863821
0.92295472
0.901626448
0.954302893
0.9350332
0.957615223
0.969752806
0.988457679
0.974723591
0.969480136
0.993528145
1.013157258
0.980627662
0.988359315
0.973513442
0.966104653
0.987919114
0.993998383
0.969508692
0.976613898
0.963244429
0.976549074
0.960656471
0.98406241
0.927165441
0.953947955
0.930314401
0.925170989
0.912999584
0.870685063
0.857706321
0.884630062
0.837146867
0.822671698
0.828112937
0.775399157
0.792365702
0.72794093
0.70255257
0.715806851
0.667831266
0.687534835
0.601253361
0.576829526
0.598417802
0.546008717
0.50887703
0.47216689
0.445031521
0.416857164
0.436691189
0.358935704
0.371553762
0.333909202
0.309847422
0.2762113
0.241872664
0.227500712
0.221054994
0.120379698
0.069269216
0.082552427
0.091899261
0.008244662
-0.014571477
-0.06458918
-0.079946365
-0.10888192
-0.126991642
-0.169787508
-0.200000949
-0.2399168
-0.28596589
-0.244526922
-0.360237961
-0.377442884
-0.350187056
-0.377376921
-0.436482886
-0.471916015
-0.506083531
-0.540394631
-0.533422341
-0.579185893
-0.618548947
-0.622477885
-0.630319058
-0.676085909
-0.679501565
-0.709400891
-0.736612112
-0.763151135
-0.767443594
-0.779055934
-0.823236205
-0.824363255
-0.867321417
-0.840579116
-0.891329065
-0.879297423
-0.902677195
-0.917792257
-0.916332793
-0.975875398
-0.966812439
-0.956686384
-0.988911248
-0.911790153
-1.002237887
-0.980132961
-1.003957561
-0.966744885
-1.001132282
-0.993845724
-0.999042641
-0.976427225
-0.961514324
-0.985880856
-0.98959017
-0.964065449
-0.985272548
-0.970964361
-0.928020005
-0.971904742
-0.924930878
-0.921337643
-0.936135985
-0.904922076
-0.916593998
-0.86502215
-0.822791898
-0.908799394
-0.84185346
-0.819858453
-0.821210843
-0.797098293
-0.777824926
-0.733776082
-0.704109544
-0.645025908
-0.686967505
-0.662540218
-0.658590022
-0.574395314
-0.557550024
-0.554734666
-0.52999947
-0.46930943
-0.482287189
-0.454967156
-0.392761033
-0.407890463
-0.353009936
-0.331652668
-0.274204657
-0.2768096
-0.205862199
-0.215169039
-0.181583369
-0.163474166
-0.096405464
-0.092744224
-0.063917931
-0.01874085
0.020672863
0.047068678
0.038952679
0.052948691
0.143641319
0.149426986
0.203925471
0.242714242
0.260196965
0.299055524
0.326985732
0.358838912
0.35882014
0.421064238
0.44510573
0.474472981
0.484961803
0.505677415
0.496676488
0.53288341
0.546789278
0.588491166
0.620752315
0.684719302
0.70801462
0.718320239
0.735393339
0.788280092
0.774993639
0.79445782
0.822847523
0.809541355
0.852191401
0.869624021
0.870019559
0.880287304
0.918568233
0.953773087
0.904052931
0.959314839
0.953074629
0.984017804
0.971967335
1.0036231
0.989706599
0.991554168
0.974039252
1.010769293
0.97560391
0.966866106
1.010998244
1.034381625
0.994036972
0.950009058
0.990779353
1.004094012
0.98027516
0.951734169
0.974340354
0.94671559
0.947655456
0.933015704
0.913295935
0.907576786
0.911733175
0.903257301
0.838845649
0.815393494
0.895654012
0.80559362
0.821219773
0.758618507
0.740704454
0.770000063
0.701430598
0.684195112
0.667194036
0.661934469
0.631304016
0.592230402
0.586796362
0.56945409
0.530292628
0.491279812
0.513005377
0.456729298
0.421906243
0.366216141
0.350266907
0.319570754
0.295484193
0.227945451
0.240016003
0.161455375
0.150373045
0.13127824
0.130951888
0.10143677
0.05874462
0.025426155
-0.027989922
-0.022471701
-0.0456528
-0.107812274
-0.148062322
-0.14717963
-0.222224953
-0.236473733
-0.289615989
-0.281658383
-0.320084631
-0.354739621
-0.355274369
-0.424263351
-0.425410928
-0.458943201
-0.489609006
-0.504245953
-0.547373418
-0.580201156
-0.637827219
-0.616354782
-0.650459678
-0.689566537
-0.680857047
-0.700489279
-0.725165285
-0.746239771
-0.794419006
-0.809367354
-0.785404573
-0.84900633
-0.870886936
-0.87444566
-0.869236952
-0.896680192
-0.904968525
-0.94653369
-0.94490992
-0.96216476
-0.927982485
-0.95337053
-0.992930899
-0.996812513
-1.02099393
-1.002081077
-0.98591518
-1.002600386
-1.015857487
-1.013943908
-0.962922252
-1.01893595
-0.976818899
-1.020134334
-0.986194665
-0.96906004
-0.977320602
-0.971800609
-0.970270065
-0.982128706
-0.901896475
-0.935114359
-0.938167681
-0.909792156
-0.918087042
-0.880837851
-0.869616817
-0.831882787
-0.825792291
-0.832178221
-0.816035797
-0.787230632
-0.757375255
-0.720455622
-0.727328292
-0.72293724
-0.65933213
-0.658686045
-0.646063112
-0.584146459
-0.567084604
-0.591141225
-0.531524115
-0.518856409
-0.477852195
-0.439536667
-0.423152186
-0.371251539
-0.373640498
-0.353516518
-0.311513491
-0.2589966
-0.23472725
-0.177422133
-0.187259814
-0.133159774
-0.119195722
-0.089286706
-0.046378907
-0.021538178
0.000174128
0.023917711
0.023239859
0.137370084
0.16562205
0.173904349
0.24712639
0.234401595
0.245591828
0.295643083
0.305549027
0.354345385
0.379013238
0.409929139
0.45594969
0.471838644
0.497905042
0.547948427
0.527460181
0.552997652
0.60602902
0.628263229
0.658107035
0.67111422
0.695086905
0.715342978
0.732320065
0.750181553
0.768095291
0.82665972
0.855468442
0.823066354
0.866821447
0.833681309
0.93762631
0.886492215
0.907107242
0.919969932
0.915165096
0.923212669
0.931831094
0.935777142
0.960782662
0.998591165
0.970444088
0.965420047
1.004557293
0.991405641
0.980931287
0.977852739
1.009495255
0.996725638
1.028493527
0.997620417
0.984629625
0.985682946
0.941690814
0.979942539
0.955370058
0.933029114
0.904528988
0.932779408
0.921943417
0.92553705
0.914844492
0.886009306
0.843125252
0.84968484
0.824046622
0.830711302
0.783991454
0.804989782
0.756594666
0.710921129
0.729585817
0.671416054
0.659263346
0.645053599
0.647786775
0.609470557
0.569558038
0.574034084
0.52686196
0.489718829
0.477834813
0.438447343
0.416653726
0.409813327
0.342761839
0.311927402
0.303180267
0.225284791
0.232262226
0.196045848
0.192967472
0.133241728
0.117921689
0.071831573
0.03381363
0.016923209
-0.008413263
-0.033553083
-0.052162577
-0.076963956
-0.144825689
-0.19859954
-0.185446658
-0.261827485
-0.237036015
-0.276269393
-0.311290903
-0.338225977
-0.389385549
-0.429666886
-0.399126993
-0.499453725
-0.479178143
-0.539594925
-0.526733797
-0.530273591
-0.577692405
-0.650883017
-0.64899264
-0.666310493
-0.719370927
-0.73580996
-0.743362908
-0.779409801
-0.787403463
-0.797561634
-0.826051745
-0.872989149
-0.810159896
-0.850941197
-0.869529102
-0.885633039
-0.889662379
-0.935104514
-0.925028438
-0.942828252
-0.96788259
-0.90668029
-0.966530353
-0.978766375
-0.998272217
-0.985251612
-0.996479871
-1.016513006
-1.024392978
-1.014315668
-0.980742274
-0.96765913
-1.0352874
-0.988529412
-0.958774251
-0.99619964
-0.963400634
-1.003182635
-0.975147063
-0.981118726
-0.955364102
-0.915403399
-0.92661463
-0.91047014
-0.884475178
-0.879625875
-0.848550975
-0.815145951
-0.804565974
-0.821286047
-0.804257575
-0.795557792
-0.777877894
-0.756403574
-0.728376563
-0.675007917
-0.660299645
-0.639389238
-0.644526462
-0.58887407
-0.565372665
-0.539652275
-0.484248244
-0.488328683
-0.493864046
-0.424840558
-0.408911975
-0.36299597
-0.348875117
-0.330010337
-0.301540127
-0.257500525
-0.219895808
-0.222284243
-0.169329994
-0.13056516
-0.114937405
-0.068499631
-0.048569598
-0.012246238
0.029670793
0.005967899
0.073686985
0.073334874
0.144734561
0.178073892
0.189303911
0.228097931
0.256747931
0.276656104
0.319149965
0.334722206
0.38691799
0.399542557
0.427275143
0.450968617
0.490285168
0.519462296
0.521766322
0.559679429
0.565509351
0.6166464
0.664329959
0.681163575
0.701111301
0.714337128
0.752723299
0.770113674
0.758986968
0.787904073
0.844506301
0.838884199
0.86317916
0.856729134
0.929110869
0.902759567
0.893430243
0.915487147
0.929056524
0.95655091
0.946255346
0.968896747
0.992354272
1.006104246
0.993377323
0.9955485
0.962856634
1.000592492
0.973862973
0.97148938
0.9931107
0.980567817
1.044542827
1.003191562
0.966053577
1.023595668
0.988689169
0.950704206
0.969305974
0.966999189
0.958288789
0.942366272
0.911256585
0.882015163
0.901597389
0.881618368
0.88449225
0.883651863
0.849846924
0.833208445
0.821272125
0.785714171
0.753548206
0.764448604
0.748713161
0.6762704
0.656391065
0.642075504
0.621660204
0.577210063
0.569502174
0.582093069
0.51335823
0.471288166
0.436190418
0.437557917
0.418399373
0.382441323
0.343751372
0.331085546
0.296785706
0.261679323
0.249273008
0.234804163
0.172293463
0.115304562
0.116012006
0.064188061
0.082395175
0.028719951
0.04258963
-0.091880852
-0.065432592
-0.120857399
-0.128168487
-0.158258484
-0.177636559
-0.271231313
-0.289686543
-0.29830847
-0.359424203
-0.326785797
-0.380278407
-0.422000241
-0.408841876
-0.471835224
-0.52750836
-0.520259893
-0.541683897
-0.584662758
-0.595502787
-0.593218654
-0.62123762
-0.664884811
-0.676217246
-0.722553223
-0.739521287
-0.774993642
-0.765561121
-0.790960282
-0.821369268
-0.816991373
-0.84965704
-0.862906561
-0.874203237
-0.900508602
-0.892032278
-0.917260645
-0.918899709
-0.946030797
-0.948769187
-0.97734884
-0.975275872
-0.975611506
-1.006295196
-1.003211554
-0.961503879
-1.025886068
-1.017270273
-1.018634334
-0.991429557
-0.960709231
-1.027427297
-1.049535125
-1.002450609
-0.967445084
-1.006806344
-0.971000501
-0.957564572
-0.966877573
-0.972855142
-0.910064986
-0.979087675
-0.915400456
-0.899176029
-0.886475042
-0.847919415
-0.90623367
-0.830839127
-0.845950671
-0.813831778
-0.765753078
-0.78900425
-0.73140007
-0.743700435
-0.721441922
-0.675390471
-0.671479945
-0.627995484
-0.591220257
-0.613067015
-0.545009117
-0.511139712
-0.494010625
-0.471160028
-0.463792751
-0.436531985
-0.366361263
-0.34535984
-0.307778242
-0.296446179
-0.27041728
-0.250427991
-0.163342966
-0.174541641
-0.175167502
-0.149235708
-0.04649699
-0.062231425
0.009057635
0.018597085
0.060268964
0.086787618
0.120012151
0.105826518
0.162526977
0.218669695
0.206657824
0.315511688
0.284503438
0.301997054
0.355726186
0.379147496
0.390303462
0.420083233
0.463835317
0.481121625
0.534548631
0.499139188
0.531816481
0.620257204
0.586805482
0.631695501
0.685748523
0.698703605
0.670840704
0.722164746
0.792567054
0.750530538
0.803790606
0.801023287
0.819094558
0.837744067
0.865923733
0.897760686
0.897496702
0.937231265
0.92839151
0.900583169
0.913860276
0.989538006
0.965029198
0.963797736
0.980519796
0.966663462
0.988548421
0.953879322
0.966134715
1.012421425
1.006673305
0.985162285
0.984980587
0.998799556
0.978029175
0.985571307
0.987851179
0.974519505
0.976888566
0.966971299
0.976101738
0.960005587
0.939835161
0.883005176
0.930911195
0.904453044
0.880865766
0.827734018
0.825616674
0.825026086
0.799222058
0.75360098
0.822734975
0.745578929
0.754556084
0.732144229
0.686564072
0.680001498
0.668423608
0.62812672
0.59690736
0.585415417
0.563795413
0.535999256
0.501257627
0.442932383
0.481830056
0.430407054
0.398918747
0.382705059
0.316667283
0.297222815
0.255456705
0.174534196
0.201429503
0.181011674
0.166078389
0.085172757
0.09849948
0.035882964
0.023216753
-0.01717571
-0.077970042
-0.080771126
-0.104138231
-0.118029174
-0.188903824
-0.219073423
-0.215437645
-0.256276162
-0.27245501
-0.30880243
-0.367613522
-0.390211028
-0.410612102
-0.459022416
-0.470918526
-0.473945394
-0.52083146
-0.566256943
-0.564843439
-0.624085626
-0.557855471
-0.637398008
-0.645897739
-0.702943468
-0.712794518
-0.71111497
-0.727052828
-0.773714045
-0.799966653
-0.825594558
-0.806224366
-0.87702093
-0.863438554
-0.913412797
-0.886659523
-0.893535653
-0.938053054
-0.941103414
-0.918698713
-0.966400119
-0.941567715
-0.985917307
-0.980310389
-0.985634299
-0.966050756
-1.005764046
-1.044023872
-0.99836225
-0.974092106
-1.005547231
-1.015458242
-1.016727322
-1.008141175
-0.98854654
-0.967980467
-0.996095268
-0.99102045
-0.95307506
-1.016454455
-0.959198035
-0.943538755
-0.916713782
-0.907248831
-0.904505533
-0.900259334
-0.863601406
-0.845891141
-0.80876102
-0.802350353
-0.74924247
-0.812667855
-0.783641388
-0.733240881
-0.703391464
-0.708014906
-0.678511246
-0.63074108
-0.625282946
-0.603839492
-0.558488256
-0.574450009
-0.553243419
-0.470004012
-0.474906727
-0.439228928
-0.420024138
-0.364107973
-0.356039284
-0.312832851
-0.301654117
-0.277598671
-0.243976147
-0.219322968
-0.183093758
-0.108355199
-0.103715249
-0.092810025
-0.07067437
-0.025753864
-0.003074182
0.041298119
0.07951643
0.091598623
0.130884427
0.19092121
0.171562642
0.229822542
0.270101979
0.272944215
0.334514903
0.374018353
0.383295081
0.424118874
0.44566715
0.451220141
0.474928612
0.520982469
0.540713925
0.606992067
0.619561039
0.637973927
0.660287915
0.672987524
0.694116336
0.697491661
0.754991011
0.752831359
0.757273043
0.817526461
0.787848382
0.80906747
0.857579891
0.854588677
0.901169389
0.932518438
0.9402641
0.944292042
0.927640072
0.953594726
0.940421882
0.970699805
0.977628625
0.959955167
0.981985143
0.942202133
0.980846544
1.000022047
0.986163602
1.014181354
1.006606397
0.960696209
1.001915531
0.977611774
0.958484864
0.961383742
0.990109082
0.998961502
0.98290277
0.954558327
0.920887845
0.894894034
0.888155863
0.942669906
0.890100513
0.888863849
0.845728983
0.817557481
0.831567361
0.799435069
0.79081541
0.780350956
0.784340947
0.762155584
0.723237083
0.694559199
0.70112481
0.644297881
0.603098849
0.58257151
0.56871981
0.554509509
0.518460206
0.50567821
0.450840219
0.398967132
0.401067415
0.36863532
0.369106834
0.34868228
0.319449177
0.256941941
0.243841162
0.182299714
0.155500464
0.132641638
0.119631193
0.073557942
0.049163001
0.013726552
-0.011301866
-0.060595719
-0.084963507
-0.095671763
-0.13891986
-0.2151795
-0.195693437
-0.235270344
-0.26292415
-0.303576821
-0.343001044
-0.334522747
-0.408535541
-0.438424538
-0.440951358
-0.429379878
-0.480633255
-0.513076537
-0.568815818
-0.580466453
-0.613629547
-0.625698629
-0.652652917
-0.681799957
-0.730100495
-0.718697526
-0.712638886
-0.836061568
-0.756195617
-0.80560496
-0.844765891
-0.82976246
-0.832502884
-0.863477486
-0.886329227
-0.856315841
-0.937138842
-0.896364928
-0.875809314
-0.963403665
-0.97101246
-0.980550004
-0.960402757
-0.976164253
-1.032754259
-0.981033948
-1.009830744
-0.973184061
-1.014863166
-0.982771452
-1.038131519
-0.948242199
-1.001462083
-0.979157335
-0.978384222
-0.982656171
-0.997995116
-0.962635951
-1.005262693
-0.948429871
-0.97470663
-0.956920298
-0.921406643
-0.911530842
-0.893471617
-0.90900809
-0.858620072
-0.87152079
-0.830699846
-0.809820219
-0.829603438
-0.749325214
-0.755485659
-0.72465564
-0.696264618
-0.676953118
-0.658596993
-0.662579742
-0.617262271
-0.585809233
-0.58115207
-0.54171905
-0.522243342
-0.516300644
-0.480747911
-0.439976843
-0.401996078
-0.366575045
-0.332023317
-0.320240219
-0.279680887
-0.270714292
-0.221680786
-0.162049353
-0.188313811
-0.093968006
-0.103737424
-0.079729556
-0.019785806
-0.015830392
0.030098615
0.074277708
0.04983912
0.110715366
0.158144332
0.146814305
0.191800819
0.289172693
0.273142894
0.316083408
0.353053472
0.383774665
0.330417904
0.392058345
0.423769878
0.486468129
0.454740136
0.525432373
0.567979804
0.573648558
0.587175117
0.613734049
0.647276991
0.698168078
0.704021589
0.779234356
0.735238584
0.754835609
0.781590888
0.792052282
0.820199612
0.86272242
0.882771401
0.858618752
0.903111072
0.902768267
0.93173657
0.916670424
0.945536572
0.997054391
1.002436169
0.969422675
0.984946221
0.997103011
0.966778796
1.015247
1.007900249
1.025175009
1.002510165
1.003207619
0.985184687
0.979048175
0.979229945
0.995707707
1.002540903
0.998063955
0.945013117
1.010686076
0.96040306
0.901908419
0.902134642
0.927397884
0.912523587
0.896208784
0.928529569
0.868671307
0.885353499
0.852479009
0.838563978
0.830422079
0.776058586
0.794741733
0.749079727
0.742088948
0.721084416
0.690437315
0.677255713
0.641096187
0.596633532
0.606619306
0.580372083
0.55738362
0.524902972
0.493925036
0.483732159
0.440970227
0.398949016
0.413890854
0.370178255
0.309603317
0.275279305
0.217626915
0.228044203
0.196643609
0.154943861
0.130059316
0.103437907
0.070031969
0.054205942
0.006072498
0.00270289
-0.084258575
-0.05969784
-0.102571163
-0.124393156
-0.193310183
-0.21444028
-0.263392765
-0.272942129
-0.307617491
-0.349324908
-0.361402273
-0.373949944
-0.399043928
-0.4464084
-0.44172964
-0.52254867
-0.517720798
-0.588024512
-0.582859724
-0.615040997
-0.636943535
-0.612877109
-0.6290603
-0.671496916
-0.710428131
-0.790098477
-0.748486723
-0.756376529
-0.799305016
-0.79466172
-0.815555373
-0.843946576
-0.878322944
-0.853839864
-0.880184012
-0.905539435
-0.931634454
-0.931682973
-0.980083233
-0.979729355
-0.975493877
-0.995742482
-0.956919216
-0.973226248
-0.995603085
-1.016269695
-1.023170317
-0.995566741
-0.995260297
-0.980183118
-0.996747601
-0.968697318
-1.007699529
-0.978629842
-0.951600919
-0.9652068
-0.958265884
-0.943801183
-0.952888052
-0.95824258
-0.956519881
-0.951211511
-0.90632414
-0.897406756
-0.869187931
-0.866985938
-0.853887304
-0.865284943
-0.788331331
-0.77574497
-0.767796141
-0.770950389
-0.755873812
-0.738502561
-0.6942494
-0.641264588
-0.635512536
-0.639092409
-0.629617071
-0.585140825
-0.537122681
-0.531174829
-0.503882149
-0.462572782
-0.440228493
-0.452910994
-0.402963042
-0.309443662
-0.331816832
-0.286901937
-0.26268422
-0.227950098
-0.19689498
-0.168285191
-0.151294882
-0.123015889
-0.068413202
-0.035080538
-0.018557318
-0.009071767
0.042098957
0.077176451
0.11123994
0.138917149
0.186408488
0.189107383
0.215973961
0.303761988
0.295102054
0.323695328
0.368126078
0.372997957
0.403157507
0.465743175
0.485866311
0.504780276
0.541170103
0.527400786
0.556735807
0.605338067
0.62167964
0.648022118
0.672673739
0.680802496
0.719403182
0.756673779
0.757275593
0.809104064
0.817167105
0.845358513
0.850761057
0.856332077
0.836476579
0.882659117
0.886732934
0.8798173
0.94010146
0.954015568
0.9059854
0.954940255
0.950220547
0.94921083
0.958039451
0.960439167
0.99356003
0.987154232
0.983295613
1.011099717
0.99322715
0.982723422
1.033754463
0.997550225
0.998576645
0.97904332
0.987483294
0.981128857
0.988664438
0.973125603
0.955589676
0.94292126
0.958231539
0.906240669
0.920995243
0.913590446
0.864307441
0.830792781
0.889403139
0.845736005
0.830229589
0.815060074
0.788548387
0.755064875
0.726086478
0.720244983
0.678061588
0.668464941
0.647258247
0.604056453
0.61701374
0.58821848
0.587171466
0.546553098
0.477009755
0.483321931
0.443777007
0.385019899
0.402346171
0.354173867
0.353764409
0.305915159
0.235258146
0.229933119
0.181972647
0.165874492
0.161405288
0.094377446
0.116992695
0.070002392
0.053431223
-0.009927574
-0.003130788
-0.055720396
-0.124124681
-0.140145047
-0.173027162
-0.232944789
-0.2366184
-0.251340333
-0.292018063
-0.318996936
-0.347046582
-0.365090937
-0.407854619
-0.45298849
-0.467294052
-0.535948995
-0.500430004
-0.543606621
-0.581169785
-0.619737165
-0.65818793
-0.660105905
-0.637638489
-0.710814249
-0.706934922
-0.741395341
-0.749160663
-0.818659873
-0.810593673
-0.801095001
-0.838562537
-0.868550421
-0.895388846
-0.88227804
-0.894316687
-0.892932427
-0.93073876
-0.927230238
-0.971779612
-0.972179687
-0.976172684
-1.015297473
-0.956264762
-1.010335685
-1.001153312
-0.973945334
-0.982165156
-1.037872495
-1.005788731
-0.992959595
-1.020035118
-0.991297375
-1.004071696
-1.026310732
-0.994854305
-0.948867951
-1.005261653
-0.956616276
-0.975201993
-0.933005134
-0.943672549
-0.9595235
-0.91169353
-0.911437523
-0.842121718
-0.874271302
-0.855865013
-0.846260045
-0.836081226
-0.782104771
-0.791199398
-0.718913269
-0.735801385
-0.725740081
-0.668915945
-0.679983806
-0.625580026
-0.652075847
-0.566088323
-0.572314649
-0.53565941
-0.500341957
-0.488669642
-0.477455402
-0.449236484
-0.412376016
-0.362913712
-0.339296584
-0.338582928
-0.278505898
-0.250778385
-0.205048783
-0.199634284
-0.162189749
-0.120131769
-0.126335918
-0.085925371
-0.011114788
0.002910593
0.010947121
0.034348588
0.092062648
0.145497974
0.118562968
0.168930218
0.214857201
0.261181107
0.262687827
0.314607543
0.306614575
0.377982907
0.379771694
0.41020454
0.416474913
0.479659389
0.51813716
0.505734938
0.553532919
0.58131207
0.57084904
0.634286843
0.685798346
0.669480518
0.698142593
0.724388586
0.757640973
0.784996253
0.75396925
0.821948636
0.834054275
0.838601465
0.831851345
0.875460934
0.883016411
0.904983884
0.92433476
0.908115602
0.953920957
0.96153083
0.922758163
0.980954211
0.918720418
0.982203274
1.018006469
0.997769959
0.980214618
0.98024378
1.026212607
0.961936035
1.002872272
0.978086485
1.013688761
0.987655847
1.01892532
0.99973803
0.994300531
0.966305517
0.925939154
0.956793945
0.967572816
0.947837137
0.902008301
0.925945064
0.86087339
0.870534525
0.889358859
0.831454706
0.838386467
0.850134252
0.830549404
0.790301331
0.729816585
0.721706203
0.757734436
0.731243138
0.659597182
0.646081135
0.627258364
0.594970746
0.5808981
0.582041838
0.521650116
0.481220704
0.476163053
0.442843256
0.388781209
0.373144959
0.387528045
0.33328778
0.301993711
0.257887729
0.216357796
0.19954479
0.163911662
0.146817324
0.108511485
0.069807588
0.024366807
0.028969893
-0.017212299
-0.021095961
-0.093993018
-0.109268661
-0.169688865
-0.166208519
-0.213329786
-0.21532922
-0.254223047
-0.302984003
-0.309338344
-0.362647424
-0.380321492
-0.429901588
-0.426021143
-0.466103634
-0.496887467
-0.51764008
-0.524628425
-0.57352701
-0.599424557
-0.626163402
-0.668359181
-0.652648749
-0.727556615
-0.748082393
-0.730669989
-0.750507013
-0.772980559
-0.753272645
-0.845139446
-0.86385312
-0.821610747
-0.891310167
-0.882167264
-0.894384058
-0.883081333
-0.952884248
-0.923489268
-0.964577841
-0.949255822
-0.986455381
-0.968997076
-0.956096168
-0.940827583
-1.012226543
-1.009556125
-0.971515464
-1.001883026
-1.032185578
-1.02328128
-0.965056181
-0.999302008
-0.984858286
-1.034919208
-0.980913298
-0.980561559
-1.016078233
-0.955548022
-0.998778609
-0.951859887
-0.907474433
-0.963755666
-0.909864309
-0.901843373
-0.864501697
-0.845672513
-0.850083902
-0.831649949
-0.790639476
-0.833540146
-0.801731299
-0.759641004
-0.726268394
-0.718169383
-0.701267021
-0.687462645
-0.645533292
-0.611506845
-0.594377569
-0.565293348
-0.551031759
-0.493774639
-0.509800984
-0.503736233
-0.43308572
-0.401031166
-0.355747006
-0.361117913
-0.324431409
-0.288438442
-0.281900965
-0.239980603
-0.226780484
-0.202308129
-0.157227073
-0.1128006
-0.047086803
-0.027048998
0.012870033
0.013485535
0.051098613
0.086078649
0.087649889
0.123990651
0.225463924
0.197796223
0.233793899
0.25193996
0.301212783
0.306745509
0.355467457
0.383999154
0.394741601
0.412569349
0.47545617
0.508947105
0.516285014
0.532612632
0.599636464
0.601041325
0.608773403
0.656275569
0.673579374
0.70605872
0.744587452
0.764926053
0.748462963
0.782856186
0.813141132
0.811340958
0.826817017
0.841350934
0.867050439
0.916437217
0.924124524
0.904990473
0.935675162
0.919855853
0.971345039
0.983795717
0.984706411
0.978758333
1.00211986
0.983528681
1.000538706
1.013706828
0.998450402
0.998127347
1.015987024
1.022330382
0.972518927
0.995807404
0.985212158
0.957612052
0.973181275
0.970159651
0.934260654
0.996061568
0.95213289
0.951263349
0.966926942
0.950069655
0.918201304
0.921008541
0.891138607
0.862025047
0.839561629
0.852534263
0.812220704
0.795535332
0.802765019
0.783955713
0.760114917
0.728720443
0.712106365
0.675042327
0.671640594
0.676052796
0.622866351
0.569990446
0.56476518
0.539732908
0.493537864
0.477955896
0.429388922
0.424979267
0.399263434
0.324790677
0.353471514
0.312150201
0.270784538
0.215180003
0.181463261
0.186023278
0.15952405
0.134963037
0.126197921
0.016680961
0.000348007
-0.003339078
-0.040896746
-0.084394417
-0.133286492
-0.170574508
-0.198197535
-0.182784627
-0.236349955
-0.30814702
-0.325064447
-0.341207893
-0.339487647
-0.409647364
-0.452160419
-0.421243218
-0.47133824
-0.52678601
-0.559094332
-0.600623663
-0.565626972
-0.594886653
-0.643343588
-0.686014356
-0.677878072
-0.696782806
-0.709569886
-0.773893931
-0.741211064
-0.777385043
-0.773774004
-0.855515662
-0.821237684
-0.877221935
-0.884119183
-0.904082106
-0.905429028
-0.935194893
-0.947855294
-0.9271287
-0.930868318
-0.963672098
-0.959302032
-0.962610868
-0.994439197
-0.990049681
-0.983273317
-0.987379287
-1.013263455
-0.950423554
-1.019692809
-1.012449272
-0.996719454
-1.02279919
-0.996255108
-1.024092254
-0.969833104
-0.978192178
-0.987054408
-0.967192301
-0.944672282
-0.969886236
-0.902239266
-0.933755861
-0.932731979
-0.907867432
-0.902162083
-0.859223574
-0.873976168
-0.838468921
-0.800599623
-0.798798933
-0.813981395
-0.751324801
-0.732154868
-0.735289455
-0.699326271
-0.710528034
-0.656275932
-0.603696325
-0.613539505
-0.573871342
-0.542260115
-0.502331873
-0.494315335
-0.499525033
-0.443565838
-0.382324062
-0.387535359
-0.35310699
-0.314889519
-0.281376388
-0.255372764
-0.234684488
-0.199218327
-0.154503774
-0.137740793
-0.121521119
-0.088454249
-0.077860743
0.009740066
0.015050129
0.041455345
0.056531162
0.147502142
0.165852068
0.164830637
0.224640329
0.237328315
0.259832363
0.330699504
0.335437066
0.338839601
0.396434116
0.418791079
0.449710021
0.455509386
0.49339208
0.534297289
0.541028096
0.588495927
0.617416795
0.647665945
0.669290469
0.682540013
0.684446131
0.711382045
0.758317566
0.784447129
0.809862266
0.797659131
0.813435259
0.814708292
0.830732935
0.905503794
0.883881618
0.919811742
0.895643547
0.925399507
0.935434458
0.963397328
0.935338094
0.987471988
0.9485027
0.957176351
0.984348834
0.985259458
1.011284176
1.046657345
0.956482395
1.009296719
1.008171303
1.004556713
0.998540944
1.003624362
0.960180862
0.95545743
0.980082896
0.95097744
0.942705341
0.960425969
0.934241684
0.938202604
0.939697876
0.950197683
0.870286097
0.862054743
0.90863228
0.854967724
0.824636188
0.831491821
0.848765012
0.776292701
0.745314585
0.733981439
0.702198003
0.69865592
0.639281883
0.619327834
0.62468607
0.593463999
0.499915684
0.562644052
0.505081787
0.495515526
0.431108224
0.402004994
0.396285099
0.39379012
0.334014992
0.317492054
0.285204223
0.286052894
0.215504122
0.213252177
0.201644039
0.113237005
0.083764628
0.071748865
0.051998582
0.032378837
-0.00509396
-0.037085439
-0.060959661
-0.089448835
-0.126847241
-0.184120546
-0.231509017
-0.247890931
-0.281650379
-0.280023618
-0.372376354
-0.380536928
-0.409001557
-0.407363583
-0.486720103
-0.48718036
-0.496741064
-0.517938917
-0.524864779
-0.546115028
-0.592304656
-0.590866533
-0.62894267
-0.682966402
-0.695166118
-0.705269419
-0.750711285
-0.784049541
-0.804532563
-0.758287062
-0.812815294
-0.868345357
-0.84542195
-0.862191483
-0.878285803
-0.885912202
-0.930445932
-0.91118723
-0.938955055
-0.953993539
-0.979946475
-0.961947886
-0.973694102
-0.960734357
-1.00100852
-1.001262774
-1.011386972
-0.999680832
-0.975211461
-0.980086718
-0.960920579
-0.992377766
-0.985619655
-1.032124386
-1.053308722
-0.99495712
-0.955308357
-1.002587307
-0.965693829
-0.939816173
-0.924572604
-0.913884475
-0.941245358
-0.893401583
-0.911198205
-0.886651637
-0.876256737
-0.856194573
-0.842884765
-0.838674217
-0.782345089
-0.795479037
-0.757153684
-0.724325394
-0.704389902
-0.693679614
-0.660592796
-0.622045165
-0.641981489
-0.612242686
-0.554867551
-0.537480031
-0.508415921
-0.49266125
-0.448253312
-0.473939738
-0.404431334
-0.369884994
-0.369928701
-0.345948315
-0.270053136
-0.264767157
-0.251768009
-0.197305382
-0.143608397
-0.155260059
-0.107914032
-0.047620889
-0.078224776
-0.003000109
0.041450503
0.041572175
0.060501741
0.091227541
0.167468819
0.2144678
0.212839316
0.249005972
0.24651733
0.293673865
0.347725762
0.338906967
0.385232263
0.398802199
0.456020672
0.440279358
0.537068745
0.510107806
0.563188414
0.573076862
0.608790543
0.573963773
0.657953291
0.701636001
0.720186306
0.724455077
0.745442959
0.720447042
0.736532259
0.815334917
0.836140885
0.823189708
0.856889505
0.870361098
0.870501051
0.872529021
0.86019944
0.920104703
0.929916936
0.949374901
0.960717569
0.94274743
0.990049457
0.987673645
0.945982935
0.982525678
0.992731807
1.005157682
1.022342833
1.011189979
0.984422505
0.98874709
0.977565485
0.963776644
1.002608673
0.965952083
0.970234362
0.973951889
0.948537477
0.950528383
0.918808387
0.915425246
0.930779837
0.908200179
0.894004524
0.875993997
0.899488363
0.853323325
0.808887865
0.825241106
0.76876956
0.754653728
0.724368995
0.74562632
0.724868133
0.704415364
0.67823176
0.633801976
0.621170959
0.58236362
0.571309739
0.551708996
0.489740243
0.486992886
0.442296672
0.448843431
0.439051336
0.383563358
0.328103637
0.283903185
0.307656263
0.251574074
0.241203384
0.167302975
0.146015582
0.141307847
0.125553647
0.080311961
0.040317021
0.011195387
-0.048140065
-0.041397171
-0.070332648
-0.120889269
-0.142921018
-0.215713723
-0.199703537
-0.240050838
-0.271261662
-0.319250777
-0.344595801
-0.353124871
-0.392256733
-0.40725936
-0.449092021
-0.436185856
-0.516540177
-0.542007243
-0.55080579
-0.571938714
-0.587723482
-0.654323071
-0.654462986
-0.674230157
-0.695143039
-0.7017132
-0.776328353
-0.758473762
-0.787760358
-0.796181993
-0.814012113
-0.796316216
-0.858386481
-0.928481922
-0.892523104
-0.921191662
-0.903033072
-0.904050474
-0.95784391
-0.934337735
-0.929870886
-0.963418955
-0.962063042
-0.996066484
-0.967562401
-0.993213413
-1.003998498
-0.993379116
-0.988860597
-1.004099009
-1.032315149
-1.0018548
-1.010621541
-1.018577945
-0.996800779
-1.025105687
-0.989430794
-0.972351585
-0.978872164
-0.930482678
-0.943279763
-0.915182783
-0.898304411
-0.909222765
-0.893882056
-0.879178877
-0.895372566
-0.823445846
-0.834025487
-0.817741377
-0.795803581
-0.781803222
-0.733366302
-0.723805586
-0.673349567
-0.696056045
-0.734397804
-0.655537776
-0.635300891
-0.611484067
-0.590947927
-0.500040027
-0.504736137
-0.503758738
-0.4898788
-0.436956594
-0.400351045
-0.348011642
-0.361315339
-0.35987106
-0.260000674
-0.258616663
-0.216192809
-0.201361076
-0.149611691
-0.143610076
-0.095184063
-0.057066133
-0.056266087
-0.015712204
0.03326787
0.068349552
0.085908286
0.145181204
0.143617202
0.163778185
0.152272307
0.262830471
0.28999558
0.321536579
0.290559134
0.353274952
0.369887714
0.381911539
0.41229585
0.477661118
0.515079448
0.520863793
0.569688697
0.584732908
0.585318403
0.625520887
0.642049392
0.633555675
0.712890283
0.76304408
0.731359744
0.767489945
0.792030457
0.841710591
0.809549187
0.82659618
0.850237406
0.849864937
0.883628547
0.91174239
0.902748319
0.951467044
0.912274526
0.922741162
0.962046301
0.94823686
0.982563917
1.008278483
1.007331308
0.947914265
1.029303891
0.995576543
0.972212244
0.986870377
0.984677038
1.014040174
0.982910782
0.981084173
0.997210677
0.995953653
0.965334304
0.970241039
0.966672464
0.916104828
0.94767209
0.931986647
0.897462607
0.877922241
0.940527897
0.864968986
0.867675542
0.877249398
0.814471052
0.814315744
0.764532676
0.801999257
0.770513741
0.712406253
0.685703862
0.684228088
0.646454484
0.651983992
0.63085633
0.594281261
0.566101256
0.542130153
0.512704886
0.495598775
0.470604402
0.41721941
0.390011201
0.365696191
0.366968393
0.31530839
0.294307355
0.224314809
0.219024382
0.189773419
0.174319471
0.144028502
0.121592812
0.08076137
0.035249219
0.032455948
-0.029613449
-0.038561436
-0.110962246
-0.118682394
-0.121674808
-0.137250463
-0.218693804
-0.222402143
-0.253996612
-0.264056047
-0.350634391
-0.364182593
-0.381277751
-0.448927179
-0.445865229
-0.461831611
-0.524739734
-0.559718998
-0.564588397
-0.630646365
-0.641729639
-0.639611475
-0.666808942
-0.698209855
-0.675747678
-0.754662807
-0.707563385
-0.769229429
-0.77641245
-0.799328149
-0.798965391
-0.826044435
-0.869516785
-0.917408805
-0.871691747
-0.919763216
-0.934295242
-0.921549047
-0.92587286
-0.95669513
-0.934081412
-0.991553771
-0.957744076
-0.951576267
-0.967340236
-0.968492246
-1.008991004
-1.000426024
-1.01461102
-0.968270207
-1.027863863
-0.964426015
-1.020382245
-0.954122126
-0.945673252
-0.974102691
-1.007385797
-0.946630917
-0.958039484
-0.979269084
-0.959767456
-0.959230079
-0.890321751
-0.929854112
-0.89767411
-0.851961996
-0.871231935
-0.840072796
-0.84158772
-0.795367338
-0.805467336
-0.764798309
-0.757340079
-0.735654305
-0.701087422
-0.686352753
-0.689522231
-0.653870097
-0.62800468
-0.62255126
-0.557244136
-0.553268825
-0.506258892
-0.467096312
-0.456820057
-0.406340398
-0.450808637
-0.343637257
-0.326931983
-0.3081249
-0.282846273
-0.237380172
-0.20745521
-0.199515962
-0.175861966
-0.112335708
-0.087340938
-0.048177516
-0.05126546
-0.016730446
0.029127429
0.048628884
0.097494307
0.115124551
0.161250548
0.174731511
0.216686552
0.235922643
0.264817987
0.289812548
0.320891168
0.324895459
0.374812685
0.448935508
0.439577908
0.456994668
0.480170952
0.510694589
0.539687041
0.552188912
0.599901091
0.648100802
0.641135517
0.705278857
0.675107747
0.745505714
0.738843788
0.769572171
0.785876592
0.828103317
0.840095477
0.824525621
0.849274375
0.864000014
0.885528313
0.919499915
0.918702963
0.936715735
0.926441241
0.935085425
0.992487074
1.030113727
0.956203438
0.981203474
0.997006031
0.962744158
1.029923416
0.989010292
1.019853309
1.023444424
1.021050356
1.013171848
0.99744595
0.978024828
1.030186025
0.982446506
0.972719136
0.985194373
0.97887362
0.962506699
0.923284005
0.960440858
0.942153747
0.888734314
0.89326998
0.878412112
0.863479609
0.830568399
0.806320725
0.79590972
0.818759384
0.791732531
0.758795946
0.729464685
0.693185432
0.68141668
0.693274228
0.631488591
0.588098938
0.577116912
0.583287116
0.56243997
0.485272185
0.502604222
0.480370464
0.436658155
0.434586002
0.387057401
0.342050992
0.290271077
0.305036799
0.25992859
0.257413498
0.219463289
0.160218014
0.147970505
0.124714141
0.05771233
0.05630755
-0.003195787
-0.007931648
-0.06299386
-0.078208164
-0.118560362
-0.100287436
-0.206449163
-0.217694903
-0.241099279
-0.276068363
-0.287702596
-0.361834338
-0.35159094
-0.389816597
-0.392041133
-0.435993251
-0.473441015
-0.533088187
-0.540379222
-0.57819769
-0.530840306
-0.602950422
-0.615236797
-0.676820036
-0.693620425
-0.683112662
-0.722906296
-0.733389895
-0.804525024
-0.775952679
-0.825193254
-0.823801541
-0.837294338
-0.840066015
-0.896484376
-0.866202789
-0.917287823
-0.922090293
-0.916000074
-0.906946797
-0.966498373
-0.925158124
-0.99485715
-0.982758179
-0.997800602
-0.98445268
-1.001347347
-0.992490681
-1.016299733
-1.000551581
-1.009173396
-1.008167627
-0.960099997
-0.98597168
-0.964599682
-0.974872494
-1.023963033
-0.962739798
-0.952059033
-0.943912787
-0.951475462
-0.922427181
-0.949101718
-0.905927939
-0.900468666
-0.892693209
-0.856587885
-0.846956004
-0.832562052
-0.834317853
-0.844434947
-0.785122184
-0.784758977
-0.724159105
-0.742649047
-0.740078722
-0.703327391
-0.65721365
-0.632312603
-0.584518378
-0.59453079
-0.568244957
-0.558805517
-0.503829796
-0.495858485
-0.487379518
-0.431577743
-0.375991709
-0.35933274
-0.376079528
-0.337590996
-0.296786948
-0.251639976
-0.214493245
-0.210909012
-0.171755584
-0.14955617
-0.145343762
-0.101900319
-0.055936509
-0.019972666
0.041737682
0.068707497
0.085054494
0.124552457
0.137838414
0.201630395
0.241115992
0.238610711
0.250556006
0.319773049
0.322746615
0.360037059
0.384819893
0.408861593
0.424942553
0.474286652
0.523784904
0.515023644
0.552309139
0.61979951
0.599360494
0.635513147
0.703125995
0.694228064
0.688560675
0.706864059
0.750973618
0.767162055
0.783429458
0.808482283
0.820322427
0.852537499
0.898765451
0.874383191
0.843811322
0.929010574
0.903232668
0.914813706
0.935070858
0.951292963
0.997942211
0.991662496
0.977115287
0.977695633
0.977270983
1.0023646
1.036112105
0.994153232
1.027964945
1.039551284
0.995430131
1.008898228
1.029996589
1.002758118
0.976797683
1.001709313
0.99622884
0.965441028
0.96381788
0.964975282
0.949192747
0.938095744
0.930380126
0.90954894
0.909579126
0.840224733
0.844602376
0.86192686
0.856611556
0.813617808
0.769919502
0.757465346
0.734411279
0.759824008
0.657258484
0.6830742
0.681296
0.612092748
0.666547625
0.609670066
0.577029123
0.553951147
0.528351107
0.457389294
0.437707076
0.400539435
0.416806399
0.37170423
0.35313378
0.286269072
0.284785829
0.234884621
0.220590126
0.185167731
0.164180574
0.125709788
0.119715756
0.080001887
0.055919592
-0.021836385
0.003147829
-0.03443421
-0.089067932
-0.104431097
-0.151819547
-0.200923701
-0.245711466
-0.255463652
-0.28841865
-0.30822477
-0.320614227
-0.364657312
-0.38420462
-0.434723837
-0.481244739
-0.464076558
-0.503257524
-0.495118962
-0.544670656
-0.575452029
-0.564998914
-0.616816089
-0.68859584
-0.665059117
-0.680347788
-0.708015825
-0.742375163
-0.748374635
-0.775539404
-0.78864693
-0.809853498
-0.851748061
-0.877012155
-0.861786301
-0.888034363
-0.934547064
-0.906806654
-0.894513134
-0.910630865
-0.957884422
-0.972730157
-0.97160317
-0.932680154
-0.951567838
-0.997708567
-0.975254828
-0.974326352
-0.964763899
-0.983888105
-1.017958137
-1.002847215
-1.033096292
-0.973999827
-1.031851382
-1.031024548
-1.040281958
-0.982682624
-0.970602192
-0.997929446
-0.994272102
-0.935059524
-0.943806443
-0.925457967
-0.911330385
-0.873768828
-0.922576408
-0.878353228
-0.862372752
-0.839149845
-0.813581389
-0.817017316
-0.776771269
-0.73519463
-0.765649452
-0.699530992
-0.677896902
-0.690907995
-0.628611348
-0.602567695
-0.624228365
-0.579995226
-0.546076969
-0.512022783
-0.469751323
-0.491826701
-0.451348115
-0.368072569
-0.339757634
-0.335311957
-0.318399875
-0.288563226
-0.238363623
-0.200140436
-0.211388942
-0.173577371
-0.136887131
-0.108097555
-0.062707629
-0.033417913
-0.014962648
0.041921161
0.059014448
0.096278591
0.136116949
0.147345738
0.159776709
0.188427309
0.259295025
0.254123247
0.321623312
0.314119105
0.346873524
0.380304035
0.411771772
0.48327962
0.468540154
0.493060592
0.506863283
0.522328285
0.546893798
0.59993683
0.654995832
0.665042087
0.722894338
0.681438456
0.719745837
0.751986757
0.7330936
0.780557518
0.804230091
0.848635913
0.846503279
0.832829054
0.837322298
0.891651722
0.914456004
0.892588172
0.932936924
0.915439399
0.935316577
0.986078975
0.933693411
0.979697519
0.965572481
1.008435676
0.99418252
0.965416524
1.000268195
0.963375881
0.987434691
1.011154182
1.01095292
1.0336429
0.99810847
0.992640546
1.003680338
0.994970506
0.984917717
0.990480734
0.975196695
0.931681625
0.94642436
0.918130386
0.928487326
0.904385682
0.896187709
0.884145405
0.871505273
0.805069631
0.791909634
0.761125617
0.733953098
0.737304255
0.718721215
0.707784665
0.677049097
0.65109661
0.693545203
0.627163171
0.580754789
0.584151027
0.549920393
0.509542172
0.514357775
0.458040017
0.452165754
0.398334975
0.361316549
0.334863921
0.278378846
0.30763709
0.248356375
0.246586992
0.192280853
0.185324395
0.13119984
0.076161803
0.072216259
0.01653869
0.00613114
-0.010455559
-0.069682417
-0.098846282
-0.106521928
-0.154985778
-0.179959037
-0.214278276
-0.265058299
-0.262271462
-0.296519896
-0.352210232
-0.342869642
-0.404036746
-0.431361363
-0.446105913
-0.449323327
-0.465200865
-0.524461674
-0.548668747
-0.55583368
-0.616186534
-0.591188603
-0.696217819
-0.689990965
-0.71081913
-0.712972148
-0.726640062
-0.795663083
-0.756705197
-0.823143108
-0.82534867
-0.822705743
-0.860199018
-0.875177677
-0.878502833
-0.897390386
-0.906477447
-0.927407501
-0.93861952
-0.936277111
-0.972361215
-0.949446753
-0.975447198
-0.964053503
-0.945547895
-1.023964716
-1.000657026
-0.996710938
-1.013840332
-1.010236434
-0.976077734
-1.017132804
-1.005672033
-0.970997739
-0.976437407
-1.004804045
-0.996412584
-0.959774876
-0.944918005
-0.969647248
-0.925566281
-0.89390093
-0.936915249
-0.88541987
-0.905732761
-0.883028614
-0.866225692
-0.844080698
-0.820966142
-0.785311377
-0.809027528
-0.794583208
-0.767187489
-0.695523202
-0.688846619
-0.701194401
-0.644551945
-0.646320226
-0.658232682
-0.571548684
-0.574308784
-0.540178391
-0.471118186
-0.513355047
-0.477050714
-0.434902514
-0.448414577
-0.405775778
-0.34017808
-0.300783002
-0.273226582
-0.239871068
-0.190378341
-0.175457466
-0.170189084
-0.127951551
-0.121536668
-0.088596455
-0.043086729
0.000552636
0.017515695
0.038233441
0.101395281
0.11702143
0.130270374
0.163051849
0.184465779
0.259671791
0.271871829
0.29887708
0.324866884
0.37879672
0.341544462
0.422239827
0.424066024
0.493220354
0.495950464
0.504813559
0.587060997
0.590531782
0.613463668
0.685021254
0.672764599
0.621430941
0.683368307
0.72761182
0.725482967
0.77579172
0.772448026
0.825109002
0.850387962
0.845396775
0.903434328
0.885406867
0.880203775
0.919320712
0.910252693
0.951053467
0.956109524
0.966443455
0.975642496
0.952618551
0.953100034
0.989611417
1.016490353
0.981986513
0.970342729
0.992034134
0.970451744
0.952727769
0.982354409
0.95862359
1.010237908
0.976171837
0.956051055
0.942888981
0.994555978
0.945462633
0.958475536
0.956544672
0.950705722
0.924113346
0.973013899
0.905397834
0.892711279
0.880361519
0.87267909
0.877669261
0.813180139
0.811107754
0.805886577
0.773466235
0.762975138
0.763912473
0.703481933
0.663291337
0.658195863
0.620165418
0.598852664
0.603775922
0.571472559
0.5457532
0.526950621
0.509931069
0.460896886
0.450289182
0.408495167
0.359249901
0.345224762
0.292876067
0.289480529
0.226863503
0.240597188
0.228761825
0.156844293
0.135319396
0.108371581
0.083000936
0.065137136
0.002627139
-0.036507385
-0.084210897
-0.102385429
-0.117437027
-0.16304292
-0.166488501
-0.177288043
-0.220827913
-0.249180207
-0.288337464
-0.356156646
-0.341624636
-0.401764909
-0.421965634
-0.44860569
-0.48209015
-0.495274702
-0.541808146
-0.571138364
-0.58194347
-0.590788692
-0.661295207
-0.647458594
-0.673680779
-0.744363513
-0.735836123
-0.757331763
-0.751447331
-0.801122107
-0.780623539
-0.803500673
-0.849308841
-0.881268845
-0.846997126
-0.887686506
-0.923417781
-0.928402766
-0.912154935
-0.957106953
-0.982924547
-0.931163895
-0.948531857
-0.949773547
-1.010900718
-0.99273094
-0.955468542
-0.99568733
-0.987013295
-0.999430855
-1.004548665
-0.993429217
-0.999583258
-0.977840817
-0.978600483
-0.991766066
-0.998665896
-0.957970069
-0.989410917
-0.984088467
-0.923997146
-0.920709351
-0.924605239
-0.904339178
-0.911986564
-0.935332564
-0.841270055
-0.869923886
-0.837156841
-0.773060188
-0.812361262
-0.809242232
-0.755216972
-0.748319376
-0.720307227
-0.7032106
-0.689650678
-0.675413925
-0.650612128
-0.587522184
-0.583340249
-0.508142434
-0.569932351
-0.544966643
-0.500265577
-0.462476366
-0.433233528
-0.408753823
-0.335863945
-0.338136707
-0.351999073
-0.273122759
-0.235098074
-0.255674564
-0.209151815
-0.199798825
-0.110779072
-0.13583505
-0.083467325
-0.065983214
-0.026379501
0.007872523
0.047978502
0.108214257
0.086563723
0.154461741
0.173320215
0.194952406
0.231172888
0.238494762
0.291720423
0.329779509
0.380349127
0.395731812
0.387502212
0.509905926
0.47295178
0.486134489
0.525927756
0.530322812
0.584977883
0.659706171
0.586578733
0.668943851
0.657556031
0.688001008
0.74196881
0.740013775
0.752696963
0.765271674
0.813717735
0.826628439
0.864574219
0.855989721
0.840353779
0.885403597
0.895078809
0.905716219
0.921676839
0.963738079
0.934996051
0.960530583
0.975016336
0.97075287
0.970145926
1.011758702
0.984811059
0.985742059
1.03057184
0.960164459
0.987753341
0.996758727
1.015079746
1.016752284
0.992952203
0.99864185
0.975411634
0.987557128
0.968192842
0.988726423
0.961015141
0.93984865
0.913712137
0.930806692
0.945668778
0.884020484
0.883706465
0.853088727
0.819664296
0.828760519
0.803544191
0.803477249
0.786505097
0.70754861
0.760068321
0.712010342
0.720331065
0.682981866
0.647067359
0.621734959
0.607323222
0.574046439
0.55391226
0.479466986
0.500144537
0.456017108
0.458447443
0.396270042
0.391247582
0.352069759
0.313681088
0.297713053
0.265850531
0.256561813
0.144117004
0.172164676
0.105977999
0.086591944
0.076552329
0.055687804
-0.005237335
-0.029375318
-0.038912701
-0.05047314
-0.129878163
-0.169443484
-0.181252885
-0.226249143
-0.231909464
-0.280487555
-0.323028433
-0.314997186
-0.366155245
-0.429095346
-0.398345862
-0.453761992
-0.476856624
-0.544473386
-0.508536027
-0.526792134
-0.589865914
-0.625638554
-0.634964611
-0.657520672
-0.675589585
-0.712113218
-0.744242197
-0.747212241
-0.754482321
-0.820862118
-0.814542093
-0.845900618
-0.882992021
-0.861076296
-0.890710913
-0.891894775
-0.890374605
-0.929514269
-0.937366034
-0.95338738
-0.956180378
-0.949502314
-0.961560347
-0.999365319
-0.963563852
-0.997913793
-1.0328888
-0.9905178
-0.982089002
-1.013349136
-1.038633089
-0.971612047
-1.00007088
-0.979004824
-1.004487015
-0.996322866
-0.990645007
-0.975171805
-0.96808915
-0.962498624
-0.918228764
-0.972502668
-0.940908506
-0.948230272
-0.902184508
-0.886287657
-0.88063878
-0.854897324
-0.876416959
-0.792860046
-0.801344672
-0.806342753
-0.763567481
-0.723749168
-0.718166808
-0.695290336
-0.708502197
-0.663383785
-0.677670519
-0.622464401
-0.571863045
-0.551154348
-0.524407979
-0.506451013
-0.497211377
-0.521005272
-0.428172278
-0.416625023
-0.349707803
-0.336648104
-0.291159033
-0.296861009
-0.272462243
-0.210349646
-0.197589591
-0.179943014
-0.124220311
-0.105355793
-0.097167231
-0.042646551
0.002021982
-0.01137895
0.014987356
0.088874986
0.143713372
0.107467041
0.181567585
0.203707183
0.22612608
0.284446234
0.312985273
0.386899439
0.375677126
0.402302648
0.427257519
0.450349997
0.495204734
0.517283195
0.540379481
0.577949323
0.586304191
0.602547835
0.632915324
0.6555058
0.669431906
0.757406023
0.685268959
0.740786591
0.761848918
0.80668186
0.791179569
0.817550562
0.836469886
0.880139098
0.87732907
0.887949701
0.926344843
0.9164966
0.917607854
0.939460162
0.979449972
0.947386741
0.947607773
0.988416291
0.946331064
0.948074078
0.974281615
0.98121558
0.991271932
1.004855185
0.984028142
1.022575597
1.004417359
0.984487412
0.994112648
0.99630545
1.011177873
0.999643639
0.950015756
0.96035131
0.955607162
0.951980076
0.916748099
0.899443748
0.89751506
0.901602746
0.878713698
0.843980881
0.852812652
0.838151971
0.819045503
0.775896957
0.778812227
0.781452451
0.735030424
0.690641844
0.668704632
0.648360499
0.639847251
0.620713858
0.631556494
0.567728773
0.542820442
0.522687527
0.486898541
0.456849244
0.461920783
0.384454312
0.37242838
0.327818927
0.317526544
0.319418034
0.264611795
0.241587812
0.214501834
0.163249672
0.127504591
0.114032158
0.036153324
0.016314337
-0.038739655
-0.054294437
-0.07819455
-0.116685434
-0.096142658
-0.142495462
-0.154277034
-0.217934355
-0.271132056
-0.276115383
-0.303957162
-0.345633
-0.378465907
-0.418529859
-0.427649484
-0.401673724
-0.477134297
-0.481963515
-0.505747535
-0.567000871
-0.607424621
-0.595821715
-0.644293797
-0.646901584
-0.669224369
-0.727525715
-0.721196429
-0.753248234
-0.736414286
-0.779448263
-0.816431679
-0.836027841
-0.845766839
-0.859239992
-0.877883102
-0.870446451
-0.891410633
-0.947667151
-0.918579981
-0.922087835
-0.935316235
-0.988529034
-1.0086132
-0.938202357
-0.99844083
-1.017728345
-1.016677473
-0.980560551
-1.009919067
-0.99866882
-0.957784165
-1.027590025
-0.966505966
-1.011334216
-0.993824834
-1.008072538
-0.986367371
-0.938533958
-0.952909295
-0.937040217
-0.958011082
-0.93177565
-0.942172318
-0.904825641
-0.912537766
-0.886656105
-0.887735382
-0.845070727
-0.864985082
-0.869858559
-0.783577959
-0.795350068
-0.759574637
-0.718129556
-0.711715216
-0.719111276
-0.705849945
-0.66840738
-0.655491431
-0.598771037
-0.565064966
-0.557080664
-0.542453013
-0.536994488
-0.478195291
-0.43699794
-0.419996445
-0.428630033
-0.319391233
-0.345620565
-0.339616648
-0.282662881
-0.227680642
-0.240704105
-0.226255613
-0.136017141
-0.152902737
-0.099330015
-0.124651302
-0.024445322
-0.02130566
0.006333362
0.070467554
0.083821362
0.128090209
0.148010786
0.196560672
0.178465606
0.267626064
0.257101164
0.318010249
0.294371905
0.350019291
0.370997597
0.41702342
0.451766567
0.439972832
0.480238804
0.563508769
0.580042122
0.579232587
0.609707764
0.627685544
0.657070201
0.676550892
0.703863577
0.744969663
0.729403612
0.768760793
0.80313679
0.826509814
0.832161009
0.848412046
0.831345074
0.889957057
0.885359376
0.892977367
0.923387628
0.932818122
0.96304846
0.929862157
0.944919183
0.993625944
0.991745881
1.023239105
0.997454151
0.974217826
1.002064395
0.990433322
0.979112844
1.02407304
0.987935945
0.996795778
1.018617629
1.000209383
1.002073036
1.004202156
0.942059664
0.949950328
0.950638705
0.979505782
0.91430721
0.92303907
0.900796115
0.903360527
0.898524535
0.871583997
0.848480156
0.847861898
0.811454934
0.79173431
0.798917852
0.829448785
0.746979314
0.716641846
0.69936274
0.681912267
0.697599862
0.637639755
0.636448615
0.619513234
0.581098755
0.536188426
0.504459191
0.491691887
0.472785155
0.435047399
0.417494837
0.340733585
0.355138563
0.261683035
0.302784828
0.256860525
0.238650726
0.173201596
0.116868966
0.150764426
0.136949855
0.075266897
0.08319186
0.007022071
-0.052633926
-0.083371875
-0.10812469
-0.109393274
-0.130471184
-0.165635377
-0.20132539
-0.235686988
-0.262301795
-0.29110738
-0.336582785
-0.366901228
-0.401148388
-0.412358622
-0.478135114
-0.471750668
-0.484468696
-0.545223763
-0.56307982
-0.572404688
-0.609294545
-0.619456253
-0.679515489
-0.680103869
-0.708585027
-0.722808624
-0.738315522
-0.782813429
-0.797252319
-0.777747444
-0.805632238
-0.844497535
-0.822946476
-0.861008385
-0.920532994
-0.897764047
-0.930961078
-0.938173784
-0.984933071
-0.971747668
-0.945210829
-0.928656637
-0.982822195
-0.944807585
-0.977057764
-0.99842262
-0.980371135
-1.018805019
-1.02689057
-1.066087448
-0.96574171
-1.018736931
-0.999383668
-0.997579123
-0.988515604
-0.980991998
-0.967001871
-1.011972312
-0.981173676
-0.952787798
-0.937109438
-0.951130987
-0.896868992
-0.921250517
-0.867617043
-0.882538952
-0.859815633
-0.817073231
-0.829720589
-0.808231788
-0.832410448
-0.765877057
-0.714584966
-0.740044688
-0.726005369
-0.690456008
-0.645437329
-0.669834041
-0.642276451
-0.598116442
-0.563025285
-0.545880459
-0.49869542
-0.47649638
-0.504114941
-0.428199797
-0.398640163
-0.348441662
-0.326213558
-0.313197074
-0.30537821
-0.233102681
-0.211664406
-0.194817944
-0.140040618
-0.130623396
-0.141211319
-0.058821023
-0.04149113
0.043020874
0.058821138
0.084614133
0.116983225
0.155249706
0.152314332
0.170332669
0.203415279
0.243031036
0.282044052
0.322721616
0.356977044
0.355338391
0.396266729
0.452063511
0.461344141
0.473472395
0.494182537
0.553951675
0.56565264
0.585281028
0.601042952
0.638963995
0.640091931
0.694061901
0.693305368
0.707784107
0.734046818
0.750540235
0.785636582
0.794293847
0.824572079
0.852597353
0.853805703
0.833798293
0.883700149
0.938993697
0.893588381
0.928836484
0.927952677
0.96064271
0.957944528
0.967472295
0.967235075
0.968041015
0.973415516
0.966536527
1.000300563
1.013660681
0.987301371
1.02570256
0.973096168
1.010135644
0.981359425
0.998325332
0.955876117
0.99372
0.99181825
0.951474086
0.944947072
0.940959263
0.948080212
0.964327856
0.940816561
0.888717735
0.877210371
0.878129963
0.850371662
0.877458229
0.847369444
0.811779389
0.783259023
0.79996298
0.754794396
0.762870244
0.729161097
0.655639927
0.662091223
0.628422987
0.640731187
0.593785083
0.534990053
0.545771398
0.453811594
0.503098066
0.460566095
0.414323732
0.406111847
0.367309476
0.368512985
0.312825415
0.286172361
0.270716846
0.206571791
0.219945187
0.182785569
0.140651992
0.104343907
0.059897733
-0.023975732
-0.033176644
-0.034012569
-0.061364525
-0.108708081
-0.087944902
-0.155680312
-0.152591353
-0.231359484
-0.250914909
-0.271019517
-0.321494262
-0.318580306
-0.347185611
-0.372225864
-0.394264379
-0.415637887
-0.47927596
-0.497221114
-0.521979443
-0.536222819
-0.590370497
-0.59702567
-0.605022884
-0.658635233
-0.678208111
-0.693473991
-0.737689743
-0.726817575
-0.766632167
-0.780703809
-0.848258473
-0.806850354
-0.889828695
-0.847421267
-0.88864722
-0.898591555
-0.918558287
-0.903651537
-0.928750367
-0.924668687
-0.959782821
-0.955421267
-0.96737055
-0.989685761
-0.970146466
-0.979311535
-0.998888826
-0.998224124
-1.018905606
-0.992437093
-0.988486101
-1.017203155
-0.963019208
-0.935335193
-0.971189518
-0.998071583
-0.984846484
-1.017750455
-0.995405871
-1.002089981
-0.969102811
-0.920637722
-0.886654571
-0.93244254
-0.934516673
-0.904004003
-0.929021884
-0.879234455
-0.848625348
-0.81314435
-0.814602304
-0.801905015
-0.804437023
-0.740851733
-0.761174031
-0.708171517
-0.677817711
-0.641346474
-0.639814531
-0.643223494
-0.583683392
-0.538681332
-0.538673651
-0.525878581
-0.472113127
-0.428190466
-0.438237071
-0.424482088
-0.319284541
-0.315194148
-0.256154684
-0.297299819
-0.23288257
-0.220832165
-0.193220575
-0.158543462
-0.124211776
-0.113813222
-0.065978988
-0.055277926
-0.019529851
0.032036177
0.079106098
0.091682817
0.156182871
0.145408078
0.161013597
0.234540759
0.268982452
0.280242419
0.2894071
0.31980159
0.340889549
0.389483051
0.429225242
0.450761515
0.452573523
0.523442366
0.543790882
0.562271199
0.589359353
0.589782056
0.643522315
0.644546023
0.696447019
0.717268049
0.737253753
0.721804808
0.723385297
0.799870919
0.804262482
0.818225903
0.850107116
0.811726669
0.875074395
0.920289165
0.896707986
0.900884019
0.926012523
0.941272465
0.943755843
0.908738662
0.993573575
0.990624692
0.982722925
0.994343131
1.004239287
0.972638372
0.996579721
1.003112126
1.008633257
0.99082571
0.990614994
0.980273033
0.969416584
0.964554445
0.976819124
0.981367084
0.968531129
0.976437451
0.994517878
0.943363056
0.934940303
0.911015561
0.916427897
0.900820536
0.875020487
0.843319129
0.8801969
0.881161553
0.784551284
0.786632274
0.77115824
0.766840706
0.760079815
0.692434998
0.696897443
0.672099816
0.655628522
0.649279947
0.589760668
0.556277986
0.523223882
0.523273592
0.466964967
0.427720784
0.406290033
0.417761724
0.359867464
0.35636072
0.319499499
0.289449158
0.238052011
0.233374984
0.196825029
0.197824978
0.101826337
0.108746952
0.075544597
0.04277323
0.023070407
-0.033935493
-0.071687328
-0.132516306
-0.12361128
-0.186538625
-0.176203409
-0.170892617
-0.251293738
-0.282008162
-0.34991734
-0.350016278
-0.385841423
-0.394475855
-0.43118202
-0.440125919
-0.491729341
-0.526205554
-0.543623887
-0.535516473
-0.599023762
-0.603755316
-0.613106428
-0.660925113
-0.65853873
-0.701193668
-0.762775237
-0.734730226
-0.768521899
-0.7680573
-0.801551893
-0.840882462
-0.825823203
-0.859093868
-0.87305814
-0.894618227
-0.891315459
-0.905101318
-0.903755887
-0.953398625
-0.933120612
-0.931690822
-0.939278065
-0.962935971
-0.963914926
-1.001883519
-0.968234367
-0.977523474
-0.991795995
-0.968408132
-1.02394461
-0.962855909
-1.023016779
-0.991511133
-1.005808052
-0.974387442
-1.012764514
-0.977420359
-0.986961202
-0.986252066
-0.981071135
-0.938756085
-0.921289491
-0.911228189
-0.900729299
-0.879106314
-0.917370468
-0.834744866
-0.825619714
-0.852519107
-0.766779662
-0.77417397
-0.751155787
-0.752685271
-0.740313194
-0.704260092
-0.684534768
-0.634489063
-0.609816824
-0.64812556
-0.598759643
-0.538166408
-0.524414612
-0.534649967
-0.48801433
-0.437447111
-0.416298098
-0.367596853
-0.355098149
-0.32442398
-0.297803605
-0.267498579
-0.247884941
-0.214268823
-0.256503187
-0.16024967
-0.135896279
-0.114124418
-0.050682564
-0.039826261
-0.000885407
0.025768221
0.044645538
0.087267236
0.140242352
0.137616029
0.166033921
0.20722707
0.273976127
0.287476207
0.338291581
0.32143999
0.357218142
0.379527308
0.469862753
0.43755461
0.482233689
0.480148036
0.520362535
0.560024347
0.553154662
0.57381571
0.65946533
0.687612952
0.685743859
0.701485559
0.720452837
0.762034847
0.76747601
0.823216032
0.836708963
0.825032644
0.837896485
0.833331164
0.897464346
0.891588317
0.914600139
0.903161224
0.904879956
0.992119476
0.97799229
0.96766415
0.989869724
0.976651077
0.94477036
0.998446863
1.001815854
0.993358785
0.945507973
1.015843024
1.009534461
1.013663375
0.956050544
1.002554828
1.007767341
0.993144229
0.997310628
0.988997944
0.957271582
0.938523857
0.94087878
0.906725824
0.936104284
0.921852824
0.909479625
0.917283579
0.860180487
0.867502652
0.873968997
0.842500677
0.807385018
0.838590086
0.769428148
0.74260381
0.729644735
0.71049133
0.706862448
0.674703733
0.640496218
0.633845176
0.567348815
0.556532656
0.499092098
0.511771275
0.492101279
0.429533272
0.418444141
0.385583157
0.371474841
0.333285453
0.30687212
0.247355844
0.241564386
0.213165155
0.203214684
0.174568063
0.127155254
0.109509478
0.051383178
0.053146152
-0.020037754
-0.008841577
-0.062274622
-0.0560843
-0.12346167
-0.194976738
-0.181030432
-0.191940011
-0.185333641
-0.256241337
-0.300431484
-0.345292622
-0.338593773
-0.412659089
-0.428794171
-0.427873981
-0.505860941
-0.524303371
-0.541525273
-0.565263351
-0.59058532
-0.570633501
-0.614085524
-0.685875007
-0.67634411
-0.714862048
-0.755772351
-0.746809673
-0.752138468
-0.806440935
-0.853208617
-0.849064145
-0.831444528
-0.850967492
-0.852928538
-0.88945029
-0.910156787
-0.935865123
-0.931480496
-0.922208033
-0.990367575
-0.938018949
-0.981634667
-0.964760375
-0.951812471
-1.017787258
-0.992146088
-0.981141969
-1.016368291
-0.998356431
-0.996326382
-1.012273306
-1.004826943
-0.996031782
-0.952288143
-0.97781918
-0.982238727
-1.00394728
-0.958761014
-0.984113927
-0.981167762
-0.923891336
-0.925551208
-0.928879685
-0.876820533
-0.889165376
-0.827926817
-0.85267765
-0.825452173
-0.857707562
-0.845094646
-0.808215332
-0.765992672
-0.740758466
-0.737360639
-0.732695627
-0.717156192
-0.639641388
-0.605550281
-0.629250186
-0.582505842
-0.55716575
-0.532657515
-0.464558863
-0.490967577
-0.468932645
-0.400911483
-0.43325583
-0.35920284
-0.34520298
-0.3240673
-0.330523854
-0.242441316
-0.234492851
-0.178774302
-0.146063434
-0.089476695
-0.091761571
-0.068141758
-0.025561144
-0.001461504
0.03649047
0.058950327
0.091903487
0.128767334
0.145291484
0.192450006
0.184790312
0.21328168
0.28614183
0.308255718
0.308352315
0.37127004
0.395224062
0.42281319
0.456802887
0.4669151
0.51868294
0.550040299
0.568204658
0.601819392
0.617293778
0.63625059
0.643322321
0.61467196
0.692623345
0.697683195
0.778402686
0.769374574
0.762065259
0.807990851
0.822230562
0.85993788
0.887037328
0.867212189
0.911858639
0.900308068
0.832165382
0.936867995
0.93625349
0.97584218
0.958982272
0.985619761
0.993229288
0.971699006
0.982612355
0.965425029
1.034569938
1.012050218
1.006683187
1.031758892
1.011389136
1.001943911
1.012105172
0.994367144
0.987578741
0.952180124
0.994698079
0.938493687
0.978458443
0.948321429
0.932967288
0.93131166
0.926146458
0.911094399
0.88731737
0.897745274
0.884620716
0.85471386
0.803686063
0.812734276
0.795907856
0.770290336
0.7285897
0.755175768
0.668034309
0.658699776
0.670483639
0.637821516
0.64873112
0.592651414
0.538693148
0.52906807
0.482452985
0.469582352
0.482193278
0.416141331
0.386959096
0.356346879
0.327326042
0.301255606
0.309583506
0.272350178
0.211537132
0.167685858
0.152064495
0.133728953
0.108889024
0.028002847
0.050024686
0.012843705
-0.020546614
-0.077278225
-0.101679599
-0.111830226
-0.128781293
-0.205031871
-0.187046878
-0.222429671
-0.280497414
-0.306330652
-0.357481572
-0.395212861
-0.3816724
-0.436429496
-0.469178362
-0.476014127
-0.546247201
-0.523939448
-0.571211263
-0.597581827
-0.603630282
-0.629528879
-0.658547318
-0.666352223
-0.732324302
-0.750856589
-0.709582887
-0.780254137
-0.790947415
-0.818758035
-0.823025881
-0.84540624
-0.829694831
-0.878049071
-0.890454265
-0.890257708
-0.903775784
-0.961240169
-0.919486972
-0.943659922
-0.98809425
-0.949454171
-0.964101658
-1.005364094
-0.990956454
-0.997775251
-1.032556823
-0.992480397
-0.978336959
-0.985402106
-1.018811065
-0.951967129
-0.982274611
-0.983588914
-0.972880256
-1.01806562
-0.964874031
-0.954075573
-0.999164051
-0.972981113
-0.930568726
-0.911364295
-0.908862967
-0.947330404
-0.868447185
-0.851065856
-0.850361232
-0.855018732
-0.818042715
-0.7891044
-0.761422745
-0.734722719
-0.761051294
-0.734988715
-0.726849219
-0.688691969
-0.694866287
-0.66037545
-0.628382193
-0.574750676
-0.560930318
-0.554505665
-0.482931551
-0.480462514
-0.41904906
-0.415561058
-0.368831067
-0.400997886
-0.335442912
-0.301547137
-0.270504993
-0.239286989
-0.228807769
-0.176979205
-0.162637044
-0.122518869
-0.0897805
-0.092488451
-0.007934943
-0.000297916
0.036733261
0.069481504
0.088083797
0.107345429
0.183702211
0.201838092
0.196493854
0.251507246
0.281649864
0.280215308
0.363009684
0.354492589
0.373897087
0.401477176
0.439041427
0.45225498
0.508721333
0.538770979
0.563327101
0.600111055
0.618056318
0.683815632
0.650479864
0.674022873
0.70376509
0.753888075
0.784495058
0.764927895
0.824714349
0.816948331
0.811834691
0.843088298
0.851170187
0.868922826
0.925294405
0.927936164
0.903085828
0.945059798
0.941314104
0.962542539
0.920882229
0.962299172
0.98367759
0.96394288
1.017614124
1.003428835
0.984183193
0.991483392
1.021235856
0.969747264
0.993647625
0.993120785
0.975561204
1.002285086
0.990490406
0.98050987
0.985922355
0.986380198
0.974351323
0.958872618
0.946839538
0.949445228
0.967811629
0.910348201
0.890646926
0.841215629
0.84869268
0.849206649
0.861405852
0.822320439
0.774760859
0.760894362
0.764457446
0.748086485
0.703235874
0.675262784
0.670808001
0.644286824
0.59938019
0.565401879
0.535431808
0.509738082
0.493987532
0.483856274
0.443257072
0.413702898
0.368715954
0.357922166
0.342545342
0.306263506
0.21371146
0.257829377
0.204155282
0.164129125
0.162224138
0.153419252
0.0805468
0.063524695
0.057947016
0.002697818
